#    s        x        y     Ue/Vinf    Dstar     Theta      Cf       H
   0.00000  1.00000  0.00126  1.00344  0.067473  0.019580  0.000061     3.446
   0.00630  0.99392  0.00292  1.00525  0.066402  0.019389  0.000066     3.425
   0.01727  0.98333  0.00577  1.00857  0.064510  0.019046  0.000076     3.387
   0.03004  0.97098  0.00904  1.01275  0.062330  0.018627  0.000088     3.346
   0.04430  0.95718  0.01262  1.01778  0.059964  0.018142  0.000101     3.305
   0.05958  0.94237  0.01638  1.02353  0.057530  0.017608  0.000116     3.267
   0.07546  0.92696  0.02021  1.02992  0.055118  0.017041  0.000131     3.234
   0.09164  0.91123  0.02403  1.03689  0.052791  0.016451  0.000145     3.209
   0.10799  0.89533  0.02780  1.04439  0.050581  0.015845  0.000157     3.192
   0.12441  0.87933  0.03149  1.05242  0.048503  0.015226  0.000167     3.186
   0.14087  0.86327  0.03511  1.06100  0.046570  0.014597  0.000174     3.190
   0.15734  0.84718  0.03864  1.07015  0.044780  0.013958  0.000176     3.208
   0.17383  0.83106  0.04208  1.07991  0.043136  0.013310  0.000173     3.241
   0.19032  0.81492  0.04544  1.09036  0.041637  0.012651  0.000162     3.291
   0.20680  0.79875  0.04870  1.10157  0.040281  0.011979  0.000142     3.363
   0.22329  0.78258  0.05188  1.11368  0.039060  0.011290  0.000113     3.460
   0.23978  0.76638  0.05496  1.12686  0.037968  0.010579  0.000072     3.589
   0.25626  0.75017  0.05796  1.14168  0.036992  0.009822  0.000018     3.766
   0.27274  0.73395  0.06086  1.15811  0.036124  0.009031 -0.000045     4.000
   0.28921  0.71772  0.06368  1.17590  0.035355  0.008223 -0.000110     4.300
   0.30568  0.70148  0.06640  1.19503  0.034673  0.007406 -0.000169     4.682
   0.32214  0.68523  0.06902  1.21562  0.034056  0.006580 -0.000214     5.175
   0.33859  0.66898  0.07155  1.23800  0.033480  0.005739 -0.000248     5.833
   0.35503  0.65272  0.07398  1.26286  0.032908  0.004868 -0.000282     6.760
   0.37146  0.63645  0.07632  1.29099  0.032293  0.003953 -0.000338     8.169
   0.38788  0.62019  0.07855  1.32382  0.031556  0.002971 -0.000386    10.622
   0.40429  0.60392  0.08069  1.36272  0.030585  0.001913 -0.000683    15.988
   0.42068  0.58766  0.08272  1.36347  0.029982  0.001897 -0.000689    15.803
   0.43705  0.57140  0.08465  1.36413  0.029142  0.001884 -0.000695    15.468
   0.45341  0.55514  0.08647  1.36474  0.028129  0.001873 -0.000701    15.021
   0.46975  0.53889  0.08818  1.36532  0.026987  0.001862 -0.000707    14.491
   0.48606  0.52265  0.08978  1.36590  0.025742  0.001853 -0.000713    13.893
   0.50236  0.50642  0.09127  1.36647  0.024414  0.001844 -0.000719    13.241
   0.51863  0.49021  0.09264  1.36708  0.023021  0.001835 -0.000726    12.546
   0.53487  0.47402  0.09390  1.36773  0.021577  0.001826 -0.000734    11.819
   0.55108  0.45785  0.09503  1.36845  0.020092  0.001816 -0.000744    11.064
   0.56725  0.44172  0.09603  1.36928  0.018582  0.001805 -0.000755    10.293
   0.58335  0.42564  0.09690  1.37026  0.017056  0.001793 -0.000769     9.511
   0.59935  0.40965  0.09765  1.37144  0.015529  0.001779 -0.000787     8.727
   0.61519  0.39382  0.09824  1.37289  0.014011  0.001763 -0.000810     7.945
   0.63085  0.37817  0.09865  1.37477  0.012578  0.001744 -0.000841     7.212
   0.64639  0.36263  0.09885  1.37719  0.011240  0.001720 -0.000882     6.534
   0.66187  0.34716  0.09884  1.38033  0.010003  0.001692 -0.000934     5.911
   0.67728  0.33174  0.09863  1.38437  0.008873  0.001659 -0.000973     5.349
   0.69264  0.31639  0.09821  1.38948  0.007855  0.001620 -0.000952     4.850
   0.70795  0.30109  0.09757  1.39579  0.006951  0.001575 -0.000779     4.413
   0.72321  0.28586  0.09672  1.40323  0.006165  0.001526 -0.000384     4.039
   0.73841  0.27069  0.09564  1.41179  0.005489  0.001473  0.000251     3.727
   0.75355  0.25561  0.09433  1.42152  0.004920  0.001415  0.001078     3.477
   0.76863  0.24061  0.09280  1.43211  0.004445  0.001354  0.002028     3.283
   0.78363  0.22571  0.09103  1.44306  0.004050  0.001292  0.003032     3.134
   0.79855  0.21092  0.08902  1.45393  0.003721  0.001232  0.004044     3.021
   0.81339  0.19626  0.08678  1.46444  0.003440  0.001173  0.005047     2.933
   0.82811  0.18175  0.08429  1.47439  0.003200  0.001116  0.006013     2.867
   0.84271  0.16741  0.08155  1.48376  0.002988  0.001061  0.006959     2.816
   0.85717  0.15327  0.07856  1.49251  0.002798  0.001008  0.007875     2.776
   0.87144  0.13937  0.07533  1.50074  0.002623  0.000956  0.008787     2.745
   0.88548  0.12576  0.07185  1.50851  0.002461  0.000904  0.009701     2.722
   0.89921  0.11254  0.06815  1.51593  0.002308  0.000853  0.010630     2.704
   0.91255  0.09978  0.06426  1.52311  0.002160  0.000803  0.011603     2.690
   0.92536  0.08762  0.06020  1.53013  0.002018  0.000753  0.012633     2.680
   0.93750  0.07622  0.05606  1.53712  0.001879  0.000703  0.013761     2.672
   0.94879  0.06572  0.05190  1.54406  0.001745  0.000655  0.015010     2.665
   0.95911  0.05625  0.04782  1.55092  0.001617  0.000608  0.016392     2.659
   0.96837  0.04786  0.04389  1.55771  0.001493  0.000563  0.017998     2.651
   0.97657  0.04055  0.04017  1.56416  0.001377  0.000521  0.019783     2.643
   0.98379  0.03423  0.03668  1.57026  0.001267  0.000481  0.021862     2.632
   0.99012  0.02879  0.03343  1.57571  0.001165  0.000445  0.024209     2.620
   0.99570  0.02411  0.03040  1.58040  0.001068  0.000410  0.026988     2.604
   1.00063  0.02008  0.02756  1.58386  0.000978  0.000378  0.030121     2.586
   1.00502  0.01660  0.02489  1.58590  0.000893  0.000348  0.033842     2.565
   1.00896  0.01357  0.02236  1.58577  0.000815  0.000320  0.037931     2.545
   1.01253  0.01095  0.01995  1.58326  0.000740  0.000294  0.042845     2.520
   1.01577  0.00867  0.01764  1.57712  0.000670  0.000269  0.048516     2.492
   1.01874  0.00671  0.01541  1.56610  0.000606  0.000246  0.054781     2.465
   1.02149  0.00502  0.01324  1.54892  0.000547  0.000225  0.061953     2.436
   1.02404  0.00360  0.01113  1.52328  0.000493  0.000205  0.069718     2.406
   1.02642  0.00242  0.00906  1.48668  0.000444  0.000187  0.077857     2.375
   1.02866  0.00148  0.00703  1.43599  0.000401  0.000171  0.085839     2.343
   1.03077  0.00077  0.00504  1.36823  0.000366  0.000158  0.092078     2.317
   1.03277  0.00029  0.00309  1.28182  0.000336  0.000147  0.096277     2.290
   1.03468  0.00004  0.00120  1.17582  0.000314  0.000138  0.096310     2.269
   1.03651  0.00001 -0.00064  1.05336  0.000298  0.000132  0.092072     2.255
   1.03838  0.00020 -0.00249  0.90933  0.000286  0.000128  0.083990     2.239
   1.04030  0.00065 -0.00436  0.74521  0.000281  0.000126  0.070263     2.235
   1.04230  0.00137 -0.00623  0.56554  0.000282  0.000127  0.054390     2.212
   1.04439  0.00239 -0.00805  0.38386  0.000296  0.000133  0.034598     2.230
   1.04657  0.00369 -0.00980  0.21112  0.000309  0.000140  0.018498     2.213
   1.04888  0.00527 -0.01148  0.05720  0.000356  0.000160  0.004283     2.230
   1.05132  0.00712 -0.01307 -0.07834  0.000356  0.000160  0.005866     2.230
   1.05393  0.00925 -0.01459 -0.19559  0.000415  0.000184  0.012200     2.261
   1.05675  0.01167 -0.01603 -0.29343  0.000452  0.000202  0.017105     2.241
   1.05979  0.01438 -0.01741 -0.37832  0.000503  0.000221  0.019249     2.274
   1.06312  0.01744 -0.01873 -0.44956  0.000556  0.000244  0.020614     2.278
   1.06679  0.02087 -0.02000 -0.51132  0.000615  0.000268  0.020927     2.292
   1.07086  0.02476 -0.02123 -0.56528  0.000677  0.000294  0.020836     2.302
   1.07542  0.02916 -0.02242 -0.61188  0.000750  0.000323  0.020007     2.320
   1.08058  0.03419 -0.02357 -0.65270  0.000827  0.000355  0.019160     2.330
   1.08647  0.03998 -0.02467 -0.68895  0.000913  0.000390  0.018105     2.343
   1.09325  0.04667 -0.02572 -0.72096  0.001009  0.000428  0.016909     2.357
   1.10108  0.05445 -0.02670 -0.74877  0.001120  0.000472  0.015578     2.373
   1.11013  0.06345 -0.02758 -0.77302  0.001239  0.000519  0.014347     2.386
   1.12048  0.07377 -0.02833 -0.79378  0.001372  0.000572  0.013107     2.401
   1.13215  0.08543 -0.02891 -0.81116  0.001516  0.000628  0.011944     2.416
   1.14504  0.09832 -0.02929 -0.82530  0.001670  0.000687  0.010866     2.431
   1.15896  0.11223 -0.02947 -0.83653  0.001831  0.000749  0.009901     2.445
   1.17368  0.12696 -0.02945 -0.84532  0.001994  0.000811  0.009059     2.458
   1.18901  0.14228 -0.02924 -0.85210  0.002158  0.000873  0.008323     2.471
   1.20480  0.15806 -0.02887 -0.85737  0.002321  0.000935  0.007701     2.482
   1.22092  0.17418 -0.02837 -0.86137  0.002483  0.000996  0.007146     2.493
   1.23731  0.19056 -0.02776 -0.86446  0.002641  0.001055  0.006677     2.503
   1.25391  0.20714 -0.02707 -0.86689  0.002795  0.001113  0.006274     2.510
   1.27067  0.22389 -0.02630 -0.86879  0.002945  0.001170  0.005922     2.517
   1.28758  0.24078 -0.02549 -0.87033  0.003090  0.001225  0.005620     2.523
   1.30460  0.25777 -0.02465 -0.87166  0.003228  0.001278  0.005370     2.526
   1.32169  0.27484 -0.02379 -0.87281  0.003361  0.001329  0.005147     2.529
   1.33881  0.29194 -0.02292 -0.87399  0.003482  0.001377  0.004981     2.528
   1.35590  0.30901 -0.02207 -0.87513  0.003598  0.001424  0.004833     2.527
   1.37294  0.32603 -0.02124 -0.87642  0.003701  0.001468  0.004731     2.522
   1.38994  0.34301 -0.02043 -0.87788  0.003793  0.001508  0.004659     2.515
   1.40689  0.35994 -0.01967 -0.87962  0.003870  0.001546  0.004626     2.504
   1.42382  0.37686 -0.01894 -0.88173  0.003933  0.001579  0.004631     2.491
   1.44075  0.39378 -0.01827 -0.88443  0.003974  0.001608  0.004693     2.471
   1.45775  0.41076 -0.01762 -0.88788  0.003990  0.001631  0.004816     2.446
   1.47481  0.42781 -0.01697 -0.89090  0.004044  0.001658  0.004806     2.438
   1.49192  0.44491 -0.01629 -0.89361  0.004113  0.001687  0.004744     2.438
   1.50907  0.46204 -0.01560 -0.89597  0.004194  0.001718  0.004645     2.442
   1.52625  0.47921 -0.01490 -0.89808  0.004278  0.001748  0.004539     2.447
   1.54344  0.49639 -0.01420 -0.90000  0.004364  0.001779  0.004434     2.453
   1.56064  0.51357 -0.01350 -0.90169  0.004452  0.001811  0.004325     2.459
   1.57783  0.53074 -0.01280 -0.90330  0.004536  0.001841  0.004234     2.463
   1.59499  0.54790 -0.01211 -0.90483  0.004616  0.001871  0.004153     2.467
   1.61214  0.56503 -0.01143 -0.90630  0.004693  0.001901  0.004080     2.469
   1.62928  0.58215 -0.01076 -0.90771  0.004768  0.001930  0.004016     2.471
   1.64639  0.59926 -0.01011 -0.90916  0.004835  0.001957  0.003967     2.471
   1.66350  0.61635 -0.00947 -0.91058  0.004901  0.001984  0.003922     2.470
   1.68058  0.63342 -0.00885 -0.91209  0.004958  0.002010  0.003894     2.467
   1.69766  0.65049 -0.00825 -0.91361  0.005013  0.002034  0.003870     2.464
   1.71473  0.66755 -0.00768 -0.91522  0.005062  0.002058  0.003856     2.460
   1.73178  0.68459 -0.00712 -0.91692  0.005105  0.002080  0.003852     2.455
   1.74883  0.70164 -0.00659 -0.91868  0.005145  0.002101  0.003851     2.449
   1.76588  0.71867 -0.00608 -0.92059  0.005177  0.002120  0.003865     2.442
   1.78292  0.73570 -0.00560 -0.92259  0.005206  0.002138  0.003882     2.434
   1.79995  0.75273 -0.00514 -0.92475  0.005228  0.002155  0.003909     2.426
   1.81698  0.76976 -0.00471 -0.92702  0.005246  0.002171  0.003940     2.417
   1.83401  0.78678 -0.00431 -0.92949  0.005257  0.002184  0.003984     2.407
   1.85104  0.80381 -0.00393 -0.93210  0.005263  0.002197  0.004032     2.396
   1.86807  0.82084 -0.00357 -0.93496  0.005261  0.002207  0.004095     2.384
   1.88510  0.83786 -0.00324 -0.93802  0.005254  0.002215  0.004165     2.372
   1.90213  0.85489 -0.00294 -0.94139  0.005236  0.002221  0.004254     2.357
   1.91914  0.87190 -0.00266 -0.94502  0.005212  0.002225  0.004351     2.343
   1.93613  0.88889 -0.00241 -0.94900  0.005180  0.002226  0.004464     2.327
   1.95305  0.90581 -0.00218 -0.95344  0.005133  0.002224  0.004607     2.308
   1.96983  0.92258 -0.00197 -0.95837  0.005073  0.002218  0.004775     2.288
   1.98627  0.93902 -0.00179 -0.96389  0.004997  0.002207  0.004981     2.265
   2.00209  0.95483 -0.00163 -0.97012  0.004900  0.002190  0.005238     2.238
   2.01678  0.96953 -0.00150 -0.97698  0.004784  0.002167  0.005549     2.208
   2.02984  0.98258 -0.00139 -0.98474  0.004636  0.002134  0.005957     2.172
   2.04093  0.99368 -0.00131 -0.99301  0.004472  0.002096  0.006435     2.134
   2.04725  1.00000 -0.00126 -1.00344  0.004195  0.002030  0.007328     2.067
   2.04725  1.00010 -0.00001  1.00344  0.074143  0.021610  0.000000     3.431
   2.05356  1.00636 -0.00080  1.00064  0.073631  0.021938  0.000000     3.356
   2.06096  1.01372 -0.00158  0.99708  0.072818  0.022357  0.000000     3.257
   2.06964  1.02235 -0.00241  0.99318  0.071784  0.022817  0.000000     3.146
   2.07981  1.03249 -0.00329  0.98889  0.070504  0.023325  0.000000     3.023
   2.09174  1.04439 -0.00423  0.98423  0.068947  0.023877  0.000000     2.888
   2.10574  1.05834 -0.00521  0.97931  0.067081  0.024460  0.000000     2.742
   2.12215  1.07472 -0.00625  0.97429  0.064875  0.025054  0.000000     2.589
   2.14139  1.09393 -0.00731  0.96937  0.062311  0.025633  0.000000     2.431
   2.16396  1.11647 -0.00838  0.96486  0.059392  0.026158  0.000000     2.270
   2.19042  1.14292 -0.00943  0.96110  0.056150  0.026590  0.000000     2.112
   2.22145  1.17393 -0.01042  0.95846  0.052653  0.026886  0.000000     1.958
   2.25784  1.21032 -0.01130  0.95726  0.049013  0.027017  0.000000     1.814
   2.30052  1.25299 -0.01199  0.95766  0.045371  0.026975  0.000000     1.682
   2.35057  1.30303 -0.01240  0.95961  0.041877  0.026777  0.000000     1.564
   2.40926  1.36172 -0.01242  0.96281  0.038664  0.026466  0.000000     1.461
   2.47809  1.43055 -0.01190  0.96682  0.035819  0.026093  0.000000     1.373
   2.55880  1.51125 -0.01067  0.97116  0.033377  0.025706  0.000000     1.298
   2.65345  1.60588 -0.00849  0.97543  0.031331  0.025340  0.000000     1.236
   2.76445  1.71682 -0.00510  0.97939  0.029646  0.025012  0.000000     1.185
   2.89461  1.84689 -0.00019  0.98291  0.028281  0.024730  0.000000     1.144
   3.04725  1.99938  0.00664  0.98878  0.026928  0.024274  0.000000     1.109
