#    s        x        y     Ue/Vinf    Dstar     Theta      Cf       H
   0.00000  1.00000  0.00126  1.02307  0.052762  0.007158 -0.000152     7.371
   0.00630  0.99392  0.00292  1.02781  0.052081  0.006851 -0.000158     7.602
   0.01727  0.98333  0.00577  1.03652  0.050829  0.006306 -0.000171     8.060
   0.03004  0.97098  0.00904  1.04762  0.049388  0.005646 -0.000189     8.748
   0.04430  0.95718  0.01262  1.06130  0.047800  0.004879 -0.000218     9.797
   0.05958  0.94237  0.01638  1.07796  0.046092  0.004008 -0.000256    11.501
   0.07546  0.92696  0.02021  1.09869  0.044229  0.003007 -0.000266    14.707
   0.09164  0.91123  0.02403  1.11293  0.042503  0.002382 -0.000445    17.846
   0.10799  0.89533  0.02780  1.11311  0.041073  0.002377 -0.000447    17.280
   0.12441  0.87933  0.03149  1.11327  0.039523  0.002373 -0.000448    16.652
   0.14087  0.86327  0.03511  1.11343  0.037903  0.002370 -0.000450    15.991
   0.15734  0.84718  0.03864  1.11358  0.036239  0.002367 -0.000452    15.307
   0.17383  0.83106  0.04208  1.11375  0.034550  0.002364 -0.000454    14.612
   0.19032  0.81492  0.04544  1.11393  0.032850  0.002361 -0.000456    13.913
   0.20680  0.79875  0.04870  1.11414  0.031151  0.002357 -0.000459    13.215
   0.22329  0.78258  0.05188  1.11439  0.029458  0.002352 -0.000462    12.522
   0.23978  0.76638  0.05496  1.11468  0.027782  0.002347 -0.000466    11.838
   0.25626  0.75017  0.05796  1.11503  0.026130  0.002340 -0.000470    11.167
   0.27274  0.73395  0.06086  1.11546  0.024508  0.002332 -0.000475    10.511
   0.28921  0.71772  0.06368  1.11597  0.022921  0.002322 -0.000481     9.872
   0.30568  0.70148  0.06640  1.11659  0.021376  0.002310 -0.000489     9.253
   0.32214  0.68523  0.06902  1.11735  0.019875  0.002296 -0.000498     8.656
   0.33859  0.66898  0.07155  1.11827  0.018429  0.002280 -0.000509     8.083
   0.35503  0.65272  0.07398  1.11939  0.017036  0.002261 -0.000522     7.535
   0.37146  0.63645  0.07632  1.12075  0.015706  0.002239 -0.000539     7.014
   0.38788  0.62019  0.07855  1.12240  0.014441  0.002214 -0.000559     6.522
   0.40429  0.60392  0.08069  1.12439  0.013248  0.002186 -0.000584     6.062
   0.42068  0.58766  0.08272  1.12678  0.012127  0.002153 -0.000609     5.632
   0.43705  0.57140  0.08465  1.12965  0.011086  0.002117 -0.000621     5.237
   0.45341  0.55514  0.08647  1.13306  0.010124  0.002076 -0.000609     4.876
   0.46975  0.53889  0.08818  1.13705  0.009242  0.002031 -0.000548     4.550
   0.48606  0.52265  0.08978  1.14162  0.008441  0.001983 -0.000417     4.257
   0.50236  0.50642  0.09127  1.14671  0.007718  0.001932 -0.000202     3.996
   0.51863  0.49021  0.09264  1.15238  0.007071  0.001877  0.000095     3.768
   0.53487  0.47402  0.09390  1.15864  0.006495  0.001818  0.000467     3.572
   0.55108  0.45785  0.09503  1.16544  0.005979  0.001757  0.000909     3.403
   0.56725  0.44172  0.09603  1.17265  0.005518  0.001693  0.001410     3.259
   0.58335  0.42564  0.09690  1.18015  0.005099  0.001628  0.001981     3.131
   0.59935  0.40965  0.09765  1.18780  0.004711  0.001563  0.002636     3.014
   0.61519  0.39382  0.09824  1.19556  0.004337  0.001497  0.003445     2.898
   0.63085  0.37817  0.09865  1.20260  0.004024  0.001434  0.004241     2.806
   0.64639  0.36263  0.09885  1.20868  0.003763  0.001376  0.004996     2.735
   0.66187  0.34716  0.09884  1.21376  0.003539  0.001321  0.005717     2.680
   0.67728  0.33174  0.09863  1.21778  0.003344  0.001269  0.006408     2.634
   0.69264  0.31639  0.09821  1.22075  0.003170  0.001221  0.007075     2.597
   0.70795  0.30109  0.09757  1.22263  0.003014  0.001174  0.007716     2.566
   0.72321  0.28586  0.09672  1.22341  0.002871  0.001130  0.008338     2.541
   0.73841  0.27069  0.09564  1.22315  0.002737  0.001087  0.008964     2.518
   0.75355  0.25561  0.09433  1.22170  0.002614  0.001046  0.009567     2.499
   0.76863  0.24061  0.09280  1.21914  0.002496  0.001006  0.010182     2.482
   0.78363  0.22571  0.09103  1.21532  0.002385  0.000966  0.010787     2.468
   0.79855  0.21092  0.08902  1.21025  0.002277  0.000928  0.011399     2.455
   0.81339  0.19626  0.08678  1.20387  0.002173  0.000890  0.012039     2.442
   0.82811  0.18175  0.08429  1.19594  0.002072  0.000852  0.012663     2.433
   0.84271  0.16741  0.08155  1.18654  0.001972  0.000814  0.013340     2.422
   0.85717  0.15327  0.07856  1.17533  0.001875  0.000777  0.014014     2.414
   0.87144  0.13937  0.07533  1.16230  0.001777  0.000739  0.014752     2.405
   0.88548  0.12576  0.07185  1.14706  0.001682  0.000701  0.015492     2.399
   0.89921  0.11254  0.06815  1.12958  0.001585  0.000663  0.016302     2.391
   0.91255  0.09978  0.06426  1.10950  0.001489  0.000624  0.017165     2.384
   0.92536  0.08762  0.06020  1.08662  0.001394  0.000586  0.018075     2.378
   0.93750  0.07622  0.05606  1.06084  0.001299  0.000548  0.019063     2.371
   0.94879  0.06572  0.05190  1.03206  0.001207  0.000511  0.020079     2.365
   0.95911  0.05625  0.04782  1.00047  0.001119  0.000474  0.021152     2.358
   0.96837  0.04786  0.04389  0.96611  0.001034  0.000440  0.022289     2.349
   0.97657  0.04055  0.04017  0.92896  0.000955  0.000408  0.023356     2.342
   0.98379  0.03423  0.03668  0.88933  0.000882  0.000378  0.024377     2.334
   0.99012  0.02879  0.03343  0.84716  0.000815  0.000350  0.025307     2.328
   0.99570  0.02411  0.03040  0.80202  0.000751  0.000324  0.026273     2.317
   1.00063  0.02008  0.02756  0.75306  0.000694  0.000301  0.026881     2.309
   1.00502  0.01660  0.02489  0.70030  0.000640  0.000278  0.027290     2.301
   1.00896  0.01357  0.02236  0.64242  0.000589  0.000258  0.027535     2.288
   1.01253  0.01095  0.01995  0.57843  0.000545  0.000239  0.026926     2.284
   1.01577  0.00867  0.01764  0.50794  0.000500  0.000220  0.026025     2.272
   1.01874  0.00671  0.01541  0.42851  0.000461  0.000203  0.024046     2.264
   1.02149  0.00502  0.01324  0.33815  0.000425  0.000189  0.020931     2.244
   1.02404  0.00360  0.01113  0.23874  0.000394  0.000175  0.015706     2.260
   1.02642  0.00242  0.00906  0.12412  0.000352  0.000158  0.009411     2.230
   1.02866  0.00148  0.00703 -0.00302  0.000352  0.000158  0.000229     2.230
   1.03077  0.00077  0.00504 -0.14261  0.000314  0.000141  0.012108     2.231
   1.03277  0.00029  0.00309 -0.29352  0.000302  0.000136  0.026100     2.222
   1.03468  0.00004  0.00120 -0.45108  0.000290  0.000131  0.041756     2.220
   1.03651  0.00001 -0.00064 -0.61124  0.000284  0.000128  0.057801     2.223
   1.03838  0.00020 -0.00249 -0.77476  0.000284  0.000127  0.072675     2.231
   1.04030  0.00065 -0.00436 -0.93481  0.000290  0.000129  0.084910     2.242
   1.04230  0.00137 -0.00623 -1.07832  0.000308  0.000136  0.090358     2.267
   1.04439  0.00239 -0.00805 -1.19725  0.000334  0.000146  0.090342     2.292
   1.04657  0.00369 -0.00980 -1.28568  0.000374  0.000160  0.083172     2.334
   1.04888  0.00527 -0.01148 -1.34702  0.000423  0.000178  0.074415     2.371
   1.05132  0.00712 -0.01307 -1.38584  0.000483  0.000200  0.063893     2.417
   1.05393  0.00925 -0.01459 -1.40772  0.000553  0.000225  0.054048     2.464
   1.05675  0.01167 -0.01603 -1.41743  0.000633  0.000252  0.045139     2.513
   1.05979  0.01438 -0.01741 -1.41873  0.000723  0.000282  0.037525     2.562
   1.06312  0.01744 -0.01873 -1.41369  0.000825  0.000315  0.030782     2.616
   1.06679  0.02087 -0.02000 -1.40449  0.000938  0.000351  0.025291     2.669
   1.07086  0.02476 -0.02123 -1.39204  0.001065  0.000391  0.020524     2.728
   1.07542  0.02916 -0.02242 -1.37720  0.001209  0.000433  0.016515     2.790
   1.08058  0.03419 -0.02357 -1.36051  0.001373  0.000481  0.013119     2.857
   1.08647  0.03998 -0.02467 -1.34236  0.001561  0.000533  0.010242     2.930
   1.09325  0.04667 -0.02572 -1.32302  0.001779  0.000590  0.007792     3.013
   1.10108  0.05445 -0.02670 -1.30264  0.002038  0.000654  0.005639     3.114
   1.11013  0.06345 -0.02758 -1.28172  0.002342  0.000725  0.003844     3.232
   1.12048  0.07377 -0.02833 -1.26076  0.002705  0.000801  0.002340     3.376
   1.13215  0.08543 -0.02891 -1.24047  0.003133  0.000882  0.001125     3.552
   1.14504  0.09832 -0.02929 -1.22158  0.003633  0.000965  0.000203     3.765
   1.15896  0.11223 -0.02947 -1.20465  0.004207  0.001047 -0.000440     4.019
   1.17368  0.12696 -0.02945 -1.18987  0.004846  0.001126 -0.000819     4.303
   1.18901  0.14228 -0.02924 -1.17717  0.005540  0.001202 -0.000994     4.610
   1.20480  0.15806 -0.02887 -1.16647  0.006276  0.001272 -0.001036     4.933
   1.22092  0.17418 -0.02837 -1.15749  0.007038  0.001338 -0.001007     5.262
   1.23731  0.19056 -0.02776 -1.14990  0.007809  0.001398 -0.000958     5.584
   1.25391  0.20714 -0.02707 -1.14341  0.008571  0.001455 -0.000901     5.890
   1.27067  0.22389 -0.02630 -1.13776  0.009310  0.001508 -0.000850     6.172
   1.28758  0.24078 -0.02549 -1.13276  0.010007  0.001559 -0.000806     6.420
   1.30460  0.25777 -0.02465 -1.12826  0.010651  0.001607 -0.000770     6.626
   1.32169  0.27484 -0.02379 -1.12413  0.011225  0.001654 -0.000739     6.785
   1.33881  0.29194 -0.02292 -1.12027  0.011714  0.001700 -0.000713     6.889
   1.35590  0.30901 -0.02207 -1.11663  0.012109  0.001746 -0.000691     6.937
   1.37294  0.32603 -0.02124 -1.11312  0.012395  0.001791 -0.000672     6.923
   1.38994  0.34301 -0.02043 -1.10970  0.012563  0.001836 -0.000656     6.844
   1.40689  0.35994 -0.01967 -1.10629  0.012600  0.001881 -0.000642     6.698
   1.42382  0.37686 -0.01894 -1.10284  0.012494  0.001928 -0.000632     6.481
   1.44075  0.39378 -0.01827 -1.09930  0.012220  0.001976 -0.000626     6.185
   1.45775  0.41076 -0.01762 -1.09558  0.011753  0.002026 -0.000624     5.802
   1.47481  0.42781 -0.01697 -1.08947  0.011127  0.002109 -0.000232     5.277
   1.49192  0.44491 -0.01629 -1.05954  0.010353  0.002538 -0.000058     4.079
   1.50907  0.46204 -0.01560 -1.03435  0.009479  0.002911  0.000727     3.256
   1.52625  0.47921 -0.01490 -1.01633  0.008639  0.003189  0.001893     2.709
   1.54344  0.49639 -0.01420 -1.00489  0.007921  0.003377  0.003041     2.345
   1.56064  0.51357 -0.01350 -0.99845  0.007358  0.003501  0.004042     2.102
   1.57783  0.53074 -0.01280 -0.99534  0.006945  0.003584  0.004856     1.938
   1.59499  0.54790 -0.01211 -0.99404  0.006660  0.003647  0.005478     1.826
   1.61214  0.56503 -0.01143 -0.99357  0.006477  0.003703  0.005930     1.749
   1.62928  0.58215 -0.01076 -0.99343  0.006369  0.003758  0.006241     1.695
   1.64639  0.59926 -0.01011 -0.99335  0.006317  0.003814  0.006443     1.656
   1.66350  0.61635 -0.00947 -0.99320  0.006307  0.003872  0.006561     1.629
   1.68058  0.63342 -0.00885 -0.99301  0.006324  0.003932  0.006620     1.608
   1.69766  0.65049 -0.00825 -0.99273  0.006364  0.003994  0.006634     1.593
   1.71473  0.66755 -0.00768 -0.99240  0.006418  0.004056  0.006617     1.582
   1.73178  0.68459 -0.00712 -0.99203  0.006483  0.004118  0.006580     1.574
   1.74883  0.70164 -0.00659 -0.99166  0.006555  0.004181  0.006528     1.568
   1.76588  0.71867 -0.00608 -0.99133  0.006630  0.004242  0.006470     1.563
   1.78292  0.73570 -0.00560 -0.99101  0.006708  0.004303  0.006406     1.559
   1.79995  0.75273 -0.00514 -0.99079  0.006786  0.004362  0.006342     1.556
   1.81698  0.76976 -0.00471 -0.99061  0.006864  0.004419  0.006279     1.553
   1.83401  0.78678 -0.00431 -0.99055  0.006939  0.004474  0.006219     1.551
   1.85104  0.80381 -0.00393 -0.99061  0.007011  0.004527  0.006163     1.549
   1.86807  0.82084 -0.00357 -0.99080  0.007078  0.004577  0.006114     1.546
   1.88510  0.83786 -0.00324 -0.99113  0.007141  0.004625  0.006069     1.544
   1.90213  0.85489 -0.00294 -0.99171  0.007194  0.004667  0.006037     1.541
   1.91914  0.87190 -0.00266 -0.99242  0.007243  0.004707  0.006009     1.539
   1.93613  0.88889 -0.00241 -0.99344  0.007282  0.004742  0.005994     1.536
   1.95305  0.90581 -0.00218 -0.99476  0.007309  0.004771  0.005991     1.532
   1.96983  0.92258 -0.00197 -0.99650  0.007321  0.004792  0.006006     1.528
   1.98627  0.93902 -0.00179 -0.99873  0.007314  0.004804  0.006042     1.522
   2.00209  0.95483 -0.00163 -1.00158  0.007283  0.004804  0.006105     1.516
   2.01678  0.96953 -0.00150 -1.00514  0.007225  0.004789  0.006202     1.509
   2.02984  0.98258 -0.00139 -1.00965  0.007129  0.004755  0.006344     1.499
   2.04093  0.99368 -0.00131 -1.01479  0.007008  0.004706  0.006521     1.489
   2.04725  1.00000 -0.00126 -1.02307  0.006760  0.004595  0.006878     1.471
   2.04725  1.00010 -0.00001  1.02307  0.061997  0.011752  0.000000     5.275
   2.05356  1.00636 -0.00082  1.01890  0.061126  0.012101  0.000000     5.051
   2.06096  1.01371 -0.00167  1.01307  0.059885  0.012590  0.000000     4.757
   2.06964  1.02233 -0.00261  1.00587  0.058343  0.013196  0.000000     4.421
   2.07981  1.03245 -0.00366  0.99682  0.056471  0.013960  0.000000     4.045
   2.09174  1.04433 -0.00484  0.98535  0.054240  0.014936  0.000000     3.631
   2.10574  1.05826 -0.00617  0.97354  0.051538  0.015948  0.000000     3.232
   2.12215  1.07460 -0.00766  0.96250  0.048346  0.016892  0.000000     2.862
   2.14139  1.09377 -0.00933  0.95271  0.044718  0.017722  0.000000     2.523
   2.16396  1.11626 -0.01120  0.94524  0.040759  0.018343  0.000000     2.222
   2.19042  1.14264 -0.01330  0.94106  0.036658  0.018679  0.000000     1.963
   2.22145  1.17358 -0.01563  0.94071  0.032661  0.018706  0.000000     1.746
   2.25784  1.20988 -0.01824  0.94394  0.029016  0.018472  0.000000     1.571
   2.30052  1.25246 -0.02114  0.94980  0.025896  0.018077  0.000000     1.433
   2.35057  1.30240 -0.02436  0.95692  0.023362  0.017626  0.000000     1.325
   2.40926  1.36098 -0.02794  0.96415  0.021374  0.017196  0.000000     1.243
   2.47809  1.42970 -0.03190  0.97079  0.019846  0.016821  0.000000     1.180
   2.55880  1.51029 -0.03629  0.97655  0.018688  0.016509  0.000000     1.132
   2.65345  1.60482 -0.04114  0.98140  0.017818  0.016257  0.000000     1.096
   2.76445  1.71568 -0.04650  0.98539  0.017172  0.016055  0.000000     1.070
   2.89461  1.84571 -0.05242  0.98862  0.016697  0.015895  0.000000     1.050
   3.04725  1.99822 -0.05896  0.99210  0.016302  0.015726  0.000000     1.037
