#    s        x        y     Ue/Vinf    Dstar     Theta      Cf       H
   0.00000  1.00000  0.00126  1.22073  0.355893  0.025633 -0.000138    13.884
   0.00630  0.99392  0.00292  1.22144  0.353623  0.025397 -0.000140    13.924
   0.01727  0.98333  0.00577  1.22270  0.349658  0.024985 -0.000142    13.995
   0.03004  0.97098  0.00904  1.22418  0.344922  0.024505 -0.000145    14.076
   0.04430  0.95718  0.01262  1.22587  0.339555  0.023966 -0.000148    14.168
   0.05958  0.94237  0.01638  1.22773  0.333742  0.023386 -0.000152    14.271
   0.07546  0.92696  0.02021  1.22971  0.327649  0.022779 -0.000156    14.384
   0.09164  0.91123  0.02403  1.23179  0.321397  0.022156 -0.000161    14.506
   0.10799  0.89533  0.02780  1.23395  0.315051  0.021521 -0.000166    14.639
   0.12441  0.87933  0.03149  1.23620  0.308652  0.020878 -0.000171    14.784
   0.14087  0.86327  0.03511  1.23852  0.302222  0.020227 -0.000177    14.941
   0.15734  0.84718  0.03864  1.24094  0.295769  0.019569 -0.000183    15.114
   0.17383  0.83106  0.04208  1.24344  0.289305  0.018903 -0.000190    15.305
   0.19032  0.81492  0.04544  1.24604  0.282831  0.018228 -0.000197    15.516
   0.20680  0.79875  0.04870  1.24875  0.276353  0.017545 -0.000205    15.751
   0.22329  0.78258  0.05188  1.25157  0.269871  0.016852 -0.000213    16.014
   0.23978  0.76638  0.05496  1.25452  0.263387  0.016148 -0.000223    16.311
   0.25626  0.75017  0.05796  1.25764  0.256899  0.015423 -0.000234    16.657
   0.27274  0.73395  0.06086  1.26094  0.250408  0.014681 -0.000246    17.057
   0.28921  0.71772  0.06368  1.26442  0.243920  0.013924 -0.000260    17.518
   0.30568  0.70148  0.06640  1.26809  0.237434  0.013149 -0.000275    18.057
   0.32214  0.68523  0.06902  1.27198  0.230949  0.012354 -0.000294    18.694
   0.33859  0.66898  0.07155  1.27612  0.224464  0.011537 -0.000315    19.456
   0.35503  0.65272  0.07398  1.28057  0.217978  0.010692 -0.000340    20.386
   0.37146  0.63645  0.07632  1.28536  0.211483  0.009815 -0.000363    21.547
   0.38788  0.62019  0.07855  1.29058  0.204975  0.008897 -0.000366    23.040
   0.40429  0.60392  0.08069  1.29633  0.198446  0.007925 -0.000370    25.040
   0.42068  0.58766  0.08272  1.30274  0.191880  0.006890 -0.000373    27.847
   0.43705  0.57140  0.08465  1.31011  0.185246  0.005753 -0.000378    32.198
   0.45341  0.55514  0.08647  1.31907  0.178463  0.004435 -0.000383    40.238
   0.46975  0.53889  0.08818  1.33178  0.171273  0.002625 -0.000390    65.259
   0.48606  0.52265  0.08978  1.33732  0.164974  0.001911 -0.001937    86.310
   0.50236  0.50642  0.09127  1.33754  0.159235  0.001893 -0.001957    84.128
   0.51863  0.49021  0.09264  1.33776  0.153427  0.001875 -0.001976    81.816
   0.53487  0.47402  0.09390  1.33798  0.147569  0.001859 -0.001994    79.391
   0.55108  0.45785  0.09503  1.33820  0.141671  0.001843 -0.002011    76.856
   0.56725  0.44172  0.09603  1.33842  0.135746  0.001829 -0.002028    74.221
   0.58335  0.42564  0.09690  1.33865  0.129806  0.001816 -0.002044    71.493
   0.59935  0.40965  0.09765  1.33886  0.123864  0.001804 -0.002059    68.679
   0.61519  0.39382  0.09824  1.33908  0.117940  0.001793 -0.002072    65.785
   0.63085  0.37817  0.09865  1.33929  0.112108  0.001783 -0.002085    62.883
   0.64639  0.36263  0.09885  1.33951  0.106361  0.001773 -0.002098    59.982
   0.66187  0.34716  0.09884  1.33974  0.100694  0.001764 -0.002110    57.086
   0.67728  0.33174  0.09863  1.33998  0.095107  0.001755 -0.002123    54.198
   0.69264  0.31639  0.09821  1.34024  0.089604  0.001746 -0.002135    51.325
   0.70795  0.30109  0.09757  1.34050  0.084187  0.001737 -0.002148    48.469
   0.72321  0.28586  0.09672  1.34079  0.078866  0.001728 -0.002162    45.641
   0.73841  0.27069  0.09564  1.34110  0.073641  0.001719 -0.002176    42.843
   0.75355  0.25561  0.09433  1.34143  0.068522  0.001709 -0.002191    40.084
   0.76863  0.24061  0.09280  1.34180  0.063511  0.001700 -0.002206    37.365
   0.78363  0.22571  0.09103  1.34220  0.058616  0.001689 -0.002224    34.696
   0.79855  0.21092  0.08902  1.34266  0.053843  0.001678 -0.002243    32.080
   0.81339  0.19626  0.08678  1.34318  0.049197  0.001666 -0.002264    29.522
   0.82811  0.18175  0.08429  1.34378  0.044685  0.001653 -0.002288    27.027
   0.84271  0.16741  0.08155  1.34448  0.040317  0.001639 -0.002316    24.603
   0.85717  0.15327  0.07856  1.34532  0.036101  0.001622 -0.002349    22.255
   0.87144  0.13937  0.07533  1.34634  0.032053  0.001603 -0.002388    19.993
   0.88548  0.12576  0.07185  1.34761  0.028186  0.001581 -0.002436    17.826
   0.89921  0.11254  0.06815  1.34922  0.024522  0.001555 -0.002496    15.767
   0.91255  0.09978  0.06426  1.35131  0.021087  0.001525 -0.002572    13.831
   0.92536  0.08762  0.06020  1.35406  0.017913  0.001488 -0.002672    12.039
   0.93750  0.07622  0.05606  1.35774  0.015034  0.001444 -0.002804    10.409
   0.94879  0.06572  0.05190  1.36267  0.012484  0.001393 -0.002982     8.961
   0.95911  0.05625  0.04782  1.36920  0.010278  0.001334 -0.003227     7.703
   0.96837  0.04786  0.04389  1.37775  0.008420  0.001268 -0.003571     6.638
   0.97657  0.04055  0.04017  1.38874  0.006888  0.001196 -0.004027     5.758
   0.98379  0.03423  0.03668  1.40256  0.005643  0.001119 -0.004313     5.042
   0.99012  0.02879  0.03343  1.41942  0.004641  0.001039 -0.003784     4.468
   0.99570  0.02411  0.03040  1.43899  0.003839  0.000958 -0.001649     4.010
   1.00063  0.02008  0.02756  1.46086  0.003201  0.000877  0.002399     3.651
   1.00502  0.01660  0.02489  1.48462  0.002688  0.000797  0.008391     3.373
   1.00896  0.01357  0.02236  1.50931  0.002275  0.000721  0.016233     3.157
   1.01253  0.01095  0.01995  1.53373  0.001938  0.000649  0.025966     2.986
   1.01577  0.00867  0.01764  1.55656  0.001660  0.000583  0.037630     2.849
   1.01874  0.00671  0.01541  1.57638  0.001429  0.000522  0.051468     2.736
   1.02149  0.00502  0.01324  1.59137  0.001237  0.000468  0.067323     2.642
   1.02404  0.00360  0.01113  1.59954  0.001075  0.000420  0.085228     2.563
   1.02642  0.00242  0.00906  1.59839  0.000940  0.000377  0.104947     2.495
   1.02866  0.00148  0.00703  1.58488  0.000826  0.000339  0.126300     2.433
   1.03077  0.00077  0.00504  1.55504  0.000732  0.000308  0.147353     2.380
   1.03277  0.00029  0.00309  1.50577  0.000660  0.000282  0.165164     2.337
   1.03468  0.00004  0.00120  1.43619  0.000605  0.000262  0.176854     2.306
   1.03651  0.00001 -0.00064  1.34764  0.000563  0.000247  0.182549     2.281
   1.03838  0.00020 -0.00249  1.23409  0.000531  0.000235  0.181845     2.254
   1.04030  0.00065 -0.00436  1.09355  0.000513  0.000230  0.169541     2.235
   1.04230  0.00137 -0.00623  0.93256  0.000509  0.000229  0.147662     2.221
   1.04439  0.00239 -0.00805  0.75924  0.000519  0.000235  0.119234     2.207
   1.04657  0.00369 -0.00980  0.58665  0.000549  0.000248  0.087020     2.210
   1.04888  0.00527 -0.01148  0.42529  0.000586  0.000266  0.059212     2.206
   1.05132  0.00712 -0.01307  0.27917  0.000637  0.000287  0.035364     2.220
   1.05393  0.00925 -0.01459  0.14836  0.000691  0.000312  0.017417     2.214
   1.05675  0.01167 -0.01603  0.03648  0.000802  0.000360  0.003638     2.230
   1.05979  0.01438 -0.01741 -0.06335  0.000802  0.000360  0.006316     2.230
   1.06312  0.01744 -0.01873 -0.15273  0.000927  0.000410  0.012823     2.260
   1.06679  0.02087 -0.02000 -0.22902  0.001015  0.000452  0.017823     2.244
   1.07086  0.02476 -0.02123 -0.29866  0.001111  0.000491  0.020809     2.265
   1.07542  0.02916 -0.02242 -0.36016  0.001224  0.000538  0.022578     2.275
   1.08058  0.03419 -0.02357 -0.41631  0.001339  0.000587  0.023720     2.281
   1.08647  0.03998 -0.02467 -0.46724  0.001475  0.000643  0.023843     2.295
   1.09325  0.04667 -0.02572 -0.51364  0.001622  0.000704  0.023652     2.304
   1.10108  0.05445 -0.02670 -0.55600  0.001787  0.000771  0.022979     2.316
   1.11013  0.06345 -0.02758 -0.59425  0.001971  0.000847  0.022017     2.328
   1.12048  0.07377 -0.02833 -0.62882  0.002167  0.000927  0.021012     2.337
   1.13215  0.08543 -0.02891 -0.65942  0.002382  0.001014  0.019809     2.349
   1.14504  0.09832 -0.02929 -0.68598  0.002609  0.001106  0.018622     2.359
   1.15896  0.11223 -0.02947 -0.70884  0.002841  0.001199  0.017508     2.369
   1.17368  0.12696 -0.02945 -0.72834  0.003076  0.001293  0.016468     2.378
   1.18901  0.14228 -0.02924 -0.74489  0.003311  0.001387  0.015511     2.387
   1.20480  0.15806 -0.02887 -0.75915  0.003538  0.001479  0.014704     2.393
   1.22092  0.17418 -0.02837 -0.77141  0.003764  0.001569  0.013948     2.400
   1.23731  0.19056 -0.02776 -0.78213  0.003981  0.001656  0.013304     2.405
   1.25391  0.20714 -0.02707 -0.79160  0.004192  0.001740  0.012732     2.409
   1.27067  0.22389 -0.02630 -0.80008  0.004394  0.001822  0.012236     2.412
   1.28758  0.24078 -0.02549 -0.80779  0.004588  0.001900  0.011807     2.415
   1.30460  0.25777 -0.02465 -0.81493  0.004770  0.001975  0.011448     2.415
   1.32169  0.27484 -0.02379 -0.82158  0.004944  0.002047  0.011130     2.416
   1.33881  0.29194 -0.02292 -0.82797  0.005102  0.002114  0.010898     2.413
   1.35590  0.30901 -0.02207 -0.83406  0.005252  0.002178  0.010686     2.411
   1.37294  0.32603 -0.02124 -0.84008  0.005384  0.002238  0.010552     2.406
   1.38994  0.34301 -0.02043 -0.84604  0.005504  0.002293  0.010454     2.401
   1.40689  0.35994 -0.01967 -0.85217  0.005602  0.002342  0.010434     2.392
   1.42382  0.37686 -0.01894 -0.85851  0.005683  0.002386  0.010469     2.382
   1.44075  0.39378 -0.01827 -0.86529  0.005738  0.002423  0.010589     2.368
   1.45775  0.41076 -0.01762 -0.87273  0.005766  0.002453  0.010809     2.351
   1.47481  0.42781 -0.01697 -0.87985  0.005829  0.002486  0.010839     2.345
   1.49192  0.44491 -0.01629 -0.88665  0.005910  0.002521  0.010781     2.345
   1.50907  0.46204 -0.01560 -0.89312  0.005998  0.002557  0.010680     2.346
   1.52625  0.47921 -0.01490 -0.89930  0.006090  0.002593  0.010567     2.349
   1.54344  0.49639 -0.01420 -0.90524  0.006181  0.002629  0.010458     2.351
   1.56064  0.51357 -0.01350 -0.91097  0.006271  0.002665  0.010354     2.353
   1.57783  0.53074 -0.01280 -0.91657  0.006354  0.002700  0.010274     2.354
   1.59499  0.54790 -0.01211 -0.92208  0.006431  0.002733  0.010216     2.353
   1.61214  0.56503 -0.01143 -0.92756  0.006500  0.002764  0.010182     2.352
   1.62928  0.58215 -0.01076 -0.93299  0.006565  0.002794  0.010161     2.350
   1.64639  0.59926 -0.01011 -0.93846  0.006622  0.002822  0.010165     2.346
   1.66350  0.61635 -0.00947 -0.94397  0.006672  0.002848  0.010185     2.343
   1.68058  0.63342 -0.00885 -0.94961  0.006711  0.002872  0.010240     2.337
   1.69766  0.65049 -0.00825 -0.95534  0.006746  0.002893  0.010302     2.332
   1.71473  0.66755 -0.00768 -0.96123  0.006771  0.002912  0.010394     2.325
   1.73178  0.68459 -0.00712 -0.96729  0.006788  0.002929  0.010503     2.318
   1.74883  0.70164 -0.00659 -0.97354  0.006799  0.002943  0.010632     2.310
   1.76588  0.71867 -0.00608 -0.98007  0.006798  0.002954  0.010793     2.302
   1.78292  0.73570 -0.00560 -0.98683  0.006791  0.002962  0.010969     2.293
   1.79995  0.75273 -0.00514 -0.99392  0.006774  0.002967  0.011176     2.283
   1.81698  0.76976 -0.00471 -1.00131  0.006750  0.002970  0.011404     2.273
   1.83401  0.78678 -0.00431 -1.00913  0.006714  0.002968  0.011672     2.262
   1.85104  0.80381 -0.00393 -1.01737  0.006670  0.002964  0.011972     2.250
   1.86807  0.82084 -0.00357 -1.02614  0.006613  0.002955  0.012317     2.238
   1.88510  0.83786 -0.00324 -1.03546  0.006547  0.002942  0.012702     2.225
   1.90213  0.85489 -0.00294 -1.04552  0.006464  0.002924  0.013162     2.210
   1.91914  0.87190 -0.00266 -1.05635  0.006369  0.002902  0.013680     2.195
   1.93613  0.88889 -0.00241 -1.06808  0.006260  0.002873  0.014276     2.179
   1.95305  0.90581 -0.00218 -1.08105  0.006127  0.002837  0.015009     2.159
   1.96983  0.92258 -0.00197 -1.09533  0.005974  0.002793  0.015872     2.139
   1.98627  0.93902 -0.00179 -1.11125  0.005794  0.002739  0.016937     2.115
   2.00209  0.95483 -0.00163 -1.12906  0.005582  0.002674  0.018275     2.088
   2.01678  0.96953 -0.00150 -1.14872  0.005340  0.002597  0.019928     2.057
   2.02984  0.98258 -0.00139 -1.17069  0.005053  0.002504  0.022127     2.018
   2.04093  0.99368 -0.00131 -1.19450  0.004742  0.002399  0.024855     1.976
   2.04725  1.00000 -0.00126 -1.22073  0.004299  0.002259  0.029605     1.903
   2.04725  1.00010 -0.00001  1.22073  0.362668  0.027892  0.000000    13.003
   2.05356  1.00636 -0.00078  1.21952  0.363133  0.028306  0.000000    12.829
   2.06096  1.01373 -0.00148  1.21799  0.363459  0.028834  0.000000    12.605
   2.06964  1.02238 -0.00216  1.21620  0.363753  0.029457  0.000000    12.348
   2.07981  1.03253 -0.00281  1.21408  0.363983  0.030194  0.000000    12.055
   2.09174  1.04445 -0.00343  1.21160  0.364115  0.031066  0.000000    11.721
   2.10574  1.05843 -0.00398  1.20867  0.364101  0.032100  0.000000    11.343
   2.12215  1.07483 -0.00442  1.20522  0.363873  0.033326  0.000000    10.919
   2.14139  1.09407 -0.00470  1.20116  0.363344  0.034783  0.000000    10.446
   2.16396  1.11664 -0.00475  1.19637  0.362392  0.036519  0.000000     9.923
   2.19042  1.14310 -0.00447  1.19072  0.360859  0.038590  0.000000     9.351
   2.22145  1.17413 -0.00375  1.18402  0.358535  0.041068  0.000000     8.730
   2.25784  1.21049 -0.00243  1.17608  0.355144  0.044045  0.000000     8.063
   2.30052  1.25312 -0.00032  1.16662  0.350323  0.047636  0.000000     7.354
   2.35057  1.30307  0.00282  1.15531  0.343598  0.051995  0.000000     6.608
   2.40926  1.36159  0.00728  1.14165  0.334351  0.057333  0.000000     5.832
   2.47809  1.43014  0.01342  1.12493  0.321787  0.063976  0.000000     5.030
   2.55880  1.51043  0.02168  1.10381  0.304933  0.072525  0.000000     4.205
   2.65345  1.60445  0.03261  1.07512  0.282751  0.084442  0.000000     3.348
   2.76445  1.71453  0.04683  1.05013  0.251659  0.094977  0.000000     2.650
   2.89461  1.84340  0.06513  1.03947  0.208504  0.099310  0.000000     2.100
   3.04725  1.99426  0.08842  1.13693  0.101958  0.070842  0.000000     1.439
