#    s        x        y     Ue/Vinf    Dstar     Theta      Cf       H
   0.00000  1.00000  0.00126  1.52555  0.766301  0.033868 -0.000127    22.626
   0.00630  0.99392  0.00292  1.52593  0.763113  0.033662 -0.000128    22.670
   0.01727  0.98333  0.00577  1.52659  0.757532  0.033305 -0.000130    22.745
   0.03004  0.97098  0.00904  1.52736  0.750772  0.032892 -0.000131    22.825
   0.04430  0.95718  0.01262  1.52822  0.743021  0.032433 -0.000133    22.910
   0.05958  0.94237  0.01638  1.52916  0.734527  0.031942 -0.000135    22.995
   0.07546  0.92696  0.02021  1.53014  0.725523  0.031435 -0.000138    23.080
   0.09164  0.91123  0.02403  1.53115  0.716184  0.030918 -0.000140    23.164
   0.10799  0.89533  0.02780  1.53218  0.706604  0.030397 -0.000143    23.246
   0.12441  0.87933  0.03149  1.53323  0.696844  0.029875 -0.000145    23.325
   0.14087  0.86327  0.03511  1.53430  0.686937  0.029353 -0.000148    23.403
   0.15734  0.84718  0.03864  1.53539  0.676895  0.028831 -0.000151    23.478
   0.17383  0.83106  0.04208  1.53649  0.666734  0.028309 -0.000153    23.552
   0.19032  0.81492  0.04544  1.53760  0.656462  0.027788 -0.000156    23.624
   0.20680  0.79875  0.04870  1.53874  0.646078  0.027267 -0.000159    23.695
   0.22329  0.78258  0.05188  1.53989  0.635591  0.026746 -0.000163    23.764
   0.23978  0.76638  0.05496  1.54107  0.624998  0.026226 -0.000166    23.831
   0.25626  0.75017  0.05796  1.54226  0.614311  0.025706 -0.000170    23.897
   0.27274  0.73395  0.06086  1.54348  0.603526  0.025187 -0.000173    23.962
   0.28921  0.71772  0.06368  1.54472  0.592644  0.024668 -0.000177    24.025
   0.30568  0.70148  0.06640  1.54598  0.581666  0.024150 -0.000181    24.086
   0.32214  0.68523  0.06902  1.54726  0.570594  0.023631 -0.000185    24.146
   0.33859  0.66898  0.07155  1.54858  0.559436  0.023113 -0.000189    24.204
   0.35503  0.65272  0.07398  1.54992  0.548183  0.022595 -0.000194    24.261
   0.37146  0.63645  0.07632  1.55128  0.536838  0.022078 -0.000198    24.316
   0.38788  0.62019  0.07855  1.55268  0.525407  0.021561 -0.000203    24.369
   0.40429  0.60392  0.08069  1.55411  0.513889  0.021043 -0.000209    24.420
   0.42068  0.58766  0.08272  1.55558  0.502277  0.020526 -0.000214    24.470
   0.43705  0.57140  0.08465  1.55708  0.490581  0.020009 -0.000220    24.518
   0.45341  0.55514  0.08647  1.55862  0.478795  0.019492 -0.000226    24.563
   0.46975  0.53889  0.08818  1.56020  0.466923  0.018975 -0.000232    24.607
   0.48606  0.52265  0.08978  1.56182  0.454967  0.018458 -0.000239    24.649
   0.50236  0.50642  0.09127  1.56349  0.442920  0.017941 -0.000246    24.688
   0.51863  0.49021  0.09264  1.56521  0.430787  0.017423 -0.000254    24.725
   0.53487  0.47402  0.09390  1.56698  0.418569  0.016905 -0.000262    24.760
   0.55108  0.45785  0.09503  1.56880  0.406268  0.016387 -0.000270    24.792
   0.56725  0.44172  0.09603  1.57069  0.393883  0.015868 -0.000279    24.822
   0.58335  0.42564  0.09690  1.57264  0.381431  0.015350 -0.000289    24.849
   0.59935  0.40965  0.09765  1.57465  0.368929  0.014833 -0.000300    24.872
   0.61519  0.39382  0.09824  1.57672  0.356403  0.014320 -0.000311    24.889
   0.63085  0.37817  0.09865  1.57885  0.343942  0.013809 -0.000323    24.907
   0.64639  0.36263  0.09885  1.58107  0.331500  0.013298 -0.000335    24.928
   0.66187  0.34716  0.09884  1.58338  0.319076  0.012786 -0.000349    24.956
   0.67728  0.33174  0.09863  1.58584  0.306643  0.012263 -0.000365    25.005
   0.69264  0.31639  0.09821  1.58843  0.294212  0.011734 -0.000382    25.074
   0.70795  0.30109  0.09757  1.59117  0.281778  0.011200 -0.000401    25.160
   0.72321  0.28586  0.09672  1.59407  0.269353  0.010660 -0.000422    25.268
   0.73841  0.27069  0.09564  1.59714  0.256943  0.010114 -0.000445    25.405
   0.75355  0.25561  0.09433  1.60042  0.244533  0.009560 -0.000472    25.577
   0.76863  0.24061  0.09280  1.60394  0.232154  0.008998 -0.000502    25.800
   0.78363  0.22571  0.09103  1.60773  0.219785  0.008425 -0.000538    26.086
   0.79855  0.21092  0.08902  1.61184  0.207445  0.007840 -0.000572    26.458
   0.81339  0.19626  0.08678  1.61633  0.195141  0.007240 -0.000575    26.952
   0.82811  0.18175  0.08429  1.62128  0.182868  0.006622 -0.000578    27.617
   0.84271  0.16741  0.08155  1.62678  0.170638  0.005981 -0.000582    28.528
   0.85717  0.15327  0.07856  1.63297  0.158475  0.005316 -0.000587    29.812
   0.87144  0.13937  0.07533  1.64010  0.146376  0.004610 -0.000592    31.755
   0.88548  0.12576  0.07185  1.64858  0.134374  0.003842 -0.000598    34.971
   0.89921  0.11254  0.06815  1.65921  0.122475  0.002970 -0.000606    41.231
   0.91255  0.09978  0.06426  1.67461  0.110615  0.001823 -0.000617    60.694
   0.92536  0.08762  0.06020  1.69090  0.099166  0.000770 -0.006065   128.779
   0.93750  0.07622  0.05606  1.69178  0.089025  0.000734 -0.006370   121.331
   0.94879  0.06572  0.05190  1.69270  0.079408  0.000700 -0.006681   113.399
   0.95911  0.05625  0.04782  1.69362  0.070462  0.000671 -0.006982   105.059
   0.96837  0.04786  0.04389  1.69453  0.062291  0.000646 -0.007257    96.442
   0.97657  0.04055  0.04017  1.69539  0.054938  0.000626 -0.007494    87.732
   0.98379  0.03423  0.03668  1.69616  0.048375  0.000612 -0.007681    79.088
   0.99012  0.02879  0.03343  1.69683  0.042544  0.000602 -0.007818    70.702
   0.99570  0.02411  0.03040  1.69739  0.037356  0.000596 -0.007906    62.691
   1.00063  0.02008  0.02756  1.69783  0.032724  0.000593 -0.007954    55.157
   1.00502  0.01660  0.02489  1.69816  0.028581  0.000593 -0.007970    48.185
   1.00896  0.01357  0.02236  1.69838  0.024847  0.000595 -0.007964    41.765
   1.01253  0.01095  0.01995  1.69852  0.021482  0.000598 -0.007947    35.936
   1.01577  0.00867  0.01764  1.69860  0.018426  0.000601 -0.007927    30.642
   1.01874  0.00671  0.01541  1.69866  0.015660  0.000605 -0.007916    25.893
   1.02149  0.00502  0.01324  1.69876  0.013156  0.000608 -0.007926    21.651
   1.02404  0.00360  0.01113  1.69901  0.010888  0.000609 -0.007971    17.873
   1.02642  0.00242  0.00906  1.69965  0.008874  0.000608 -0.008079    14.589
   1.02866  0.00148  0.00703  1.70100  0.007073  0.000604 -0.008288    11.708
   1.03077  0.00077  0.00504  1.70381  0.005517  0.000595 -0.008681     9.274
   1.03277  0.00029  0.00309  1.70922  0.004205  0.000579 -0.009432     7.264
   1.03468  0.00004  0.00120  1.71919  0.003128  0.000554 -0.010819     5.642
   1.03651  0.00001 -0.00064  1.73656  0.002278  0.000520 -0.008555     4.383
   1.03838  0.00020 -0.00249  1.76451  0.001625  0.000473  0.013739     3.438
   1.04030  0.00065 -0.00436  1.80391  0.001162  0.000412  0.064565     2.823
   1.04230  0.00137 -0.00623  1.83119  0.000886  0.000356  0.128466     2.488
   1.04439  0.00239 -0.00805  1.81524  0.000745  0.000321  0.179153     2.321
   1.04657  0.00369 -0.00980  1.74833  0.000681  0.000305  0.204832     2.232
   1.04888  0.00527 -0.01148  1.64110  0.000668  0.000305  0.203231     2.192
   1.05132  0.00712 -0.01307  1.51390  0.000682  0.000313  0.185894     2.178
   1.05393  0.00925 -0.01459  1.38040  0.000708  0.000327  0.165058     2.165
   1.05675  0.01167 -0.01603  1.24428  0.000745  0.000346  0.143069     2.151
   1.05979  0.01438 -0.01741  1.11202  0.000809  0.000372  0.115866     2.171
   1.06312  0.01744 -0.01873  0.99082  0.000855  0.000396  0.098530     2.160
   1.06679  0.02087 -0.02000  0.87170  0.000924  0.000427  0.079814     2.166
   1.07086  0.02476 -0.02123  0.75987  0.000998  0.000460  0.064234     2.169
   1.07542  0.02916 -0.02242  0.65458  0.001084  0.000497  0.050428     2.181
   1.08058  0.03419 -0.02357  0.55529  0.001166  0.000534  0.039686     2.184
   1.08647  0.03998 -0.02467  0.45872  0.001263  0.000578  0.030194     2.186
   1.09325  0.04667 -0.02572  0.36633  0.001381  0.000629  0.021835     2.197
   1.10108  0.05445 -0.02670  0.27877  0.001500  0.000681  0.015227     2.203
   1.11013  0.06345 -0.02758  0.19542  0.001625  0.000732  0.009703     2.219
   1.12048  0.07377 -0.02833  0.11498  0.001758  0.000797  0.005335     2.207
   1.13215  0.08543 -0.02891  0.04231  0.002026  0.000909  0.001670     2.230
   1.14504  0.09832 -0.02929 -0.02390  0.002026  0.000909  0.000943     2.230
   1.15896  0.11223 -0.02947 -0.08646  0.002241  0.000999  0.003046     2.244
   1.17368  0.12696 -0.02945 -0.13955  0.002459  0.001093  0.004459     2.249
   1.18901  0.14228 -0.02924 -0.18747  0.002592  0.001155  0.005708     2.244
   1.20480  0.15806 -0.02887 -0.23113  0.002741  0.001215  0.006590     2.255
   1.22092  0.17418 -0.02837 -0.26922  0.002920  0.001288  0.007130     2.266
   1.23731  0.19056 -0.02776 -0.30422  0.003043  0.001347  0.007786     2.259
   1.25391  0.20714 -0.02707 -0.33600  0.003196  0.001408  0.008104     2.270
   1.27067  0.22389 -0.02630 -0.36471  0.003338  0.001468  0.008400     2.273
   1.28758  0.24078 -0.02549 -0.39146  0.003459  0.001522  0.008708     2.272
   1.30460  0.25777 -0.02465 -0.41600  0.003595  0.001578  0.008849     2.279
   1.32169  0.27484 -0.02379 -0.43940  0.003691  0.001624  0.009149     2.273
   1.33881  0.29194 -0.02292 -0.46134  0.003803  0.001670  0.009293     2.277
   1.35590  0.30901 -0.02207 -0.48182  0.003910  0.001715  0.009418     2.279
   1.37294  0.32603 -0.02124 -0.50140  0.003997  0.001755  0.009606     2.277
   1.38994  0.34301 -0.02043 -0.52058  0.004061  0.001788  0.009864     2.272
   1.40689  0.35994 -0.01967 -0.53887  0.004142  0.001821  0.009992     2.274
   1.42382  0.37686 -0.01894 -0.55682  0.004199  0.001850  0.010221     2.270
   1.44075  0.39378 -0.01827 -0.57492  0.004232  0.001870  0.010545     2.263
   1.45775  0.41076 -0.01762 -0.59339  0.004249  0.001885  0.010919     2.255
   1.47481  0.42781 -0.01697 -0.61142  0.004293  0.001903  0.011116     2.256
   1.49192  0.44491 -0.01629 -0.62873  0.004351  0.001924  0.011228     2.261
   1.50907  0.46204 -0.01560 -0.64554  0.004403  0.001945  0.011367     2.264
   1.52625  0.47921 -0.01490 -0.66172  0.004462  0.001968  0.011461     2.267
   1.54344  0.49639 -0.01420 -0.67782  0.004500  0.001987  0.011664     2.265
   1.56064  0.51357 -0.01350 -0.69348  0.004547  0.002007  0.011798     2.266
   1.57783  0.53074 -0.01280 -0.70886  0.004590  0.002025  0.011948     2.266
   1.59499  0.54790 -0.01211 -0.72426  0.004618  0.002041  0.012172     2.263
   1.61214  0.56503 -0.01143 -0.73944  0.004650  0.002056  0.012352     2.262
   1.62928  0.58215 -0.01076 -0.75462  0.004673  0.002069  0.012574     2.259
   1.64639  0.59926 -0.01011 -0.76989  0.004689  0.002079  0.012832     2.255
   1.66350  0.61635 -0.00947 -0.78525  0.004700  0.002087  0.013099     2.252
   1.68058  0.63342 -0.00885 -0.80087  0.004701  0.002093  0.013418     2.247
   1.69766  0.65049 -0.00825 -0.81645  0.004709  0.002098  0.013681     2.244
   1.71473  0.66755 -0.00768 -0.83252  0.004697  0.002099  0.014067     2.238
   1.73178  0.68459 -0.00712 -0.84870  0.004692  0.002099  0.014398     2.235
   1.74883  0.70164 -0.00659 -0.86537  0.004673  0.002096  0.014819     2.229
   1.76588  0.71867 -0.00608 -0.88246  0.004650  0.002091  0.015260     2.224
   1.78292  0.73570 -0.00560 -0.90014  0.004618  0.002083  0.015765     2.217
   1.79995  0.75273 -0.00514 -0.91838  0.004582  0.002072  0.016295     2.211
   1.81698  0.76976 -0.00471 -0.93724  0.004542  0.002059  0.016862     2.205
   1.83401  0.78678 -0.00431 -0.95716  0.004485  0.002042  0.017574     2.197
   1.85104  0.80381 -0.00393 -0.97768  0.004435  0.002024  0.018241     2.191
   1.86807  0.82084 -0.00357 -0.99967  0.004361  0.001999  0.019136     2.181
   1.88510  0.83786 -0.00324 -1.02277  0.004288  0.001973  0.020049     2.173
   1.90213  0.85489 -0.00294 -1.04752  0.004200  0.001941  0.021142     2.163
   1.91914  0.87190 -0.00266 -1.07414  0.004102  0.001905  0.022405     2.153
   1.93613  0.88889 -0.00241 -1.10304  0.003990  0.001864  0.023893     2.141
   1.95305  0.90581 -0.00218 -1.13482  0.003861  0.001815  0.025703     2.127
   1.96983  0.92258 -0.00197 -1.17008  0.003714  0.001759  0.027917     2.111
   1.98627  0.93902 -0.00179 -1.20951  0.003547  0.001695  0.030679     2.093
   2.00209  0.95483 -0.00163 -1.25423  0.003350  0.001619  0.034337     2.069
   2.01678  0.96953 -0.00150 -1.30492  0.003124  0.001530  0.039195     2.041
   2.02984  0.98258 -0.00139 -1.36394  0.002849  0.001424  0.046372     2.000
   2.04093  0.99368 -0.00131 -1.43294  0.002543  0.001303  0.056646     1.952
   2.04725  1.00000 -0.00126 -1.52555  0.002016  0.001111  0.083947     1.815
   2.04725  1.00010 -0.00001  1.52555  0.770792  0.034979  0.000000    22.036
   2.05356  1.00637 -0.00071  1.52480  0.771901  0.035393  0.000000    21.809
   2.06096  1.01376 -0.00112  1.52385  0.772781  0.035920  0.000000    21.514
   2.06964  1.02243 -0.00131  1.52273  0.773626  0.036543  0.000000    21.170
   2.07981  1.03261 -0.00124  1.52141  0.774377  0.037280  0.000000    20.772
   2.09174  1.04453 -0.00081  1.51985  0.774972  0.038151  0.000000    20.313
   2.10574  1.05850  0.00006  1.51801  0.775324  0.039183  0.000000    19.787
   2.12215  1.07484  0.00151  1.51584  0.775313  0.040406  0.000000    19.188
   2.14139  1.09396  0.00373  1.51327  0.774773  0.041858  0.000000    18.510
   2.16396  1.11630  0.00691  1.51024  0.773481  0.043583  0.000000    17.748
   2.19042  1.14239  0.01133  1.50665  0.771134  0.045634  0.000000    16.898
   2.22145  1.17284  0.01732  1.50239  0.767322  0.048078  0.000000    15.960
   2.25784  1.20835  0.02528  1.49733  0.761486  0.050997  0.000000    14.932
   2.30052  1.24973  0.03572  1.49128  0.752864  0.054488  0.000000    13.817
   2.35057  1.29792  0.04924  1.48404  0.740393  0.058679  0.000000    12.618
   2.40926  1.35399  0.06656  1.47530  0.722573  0.063728  0.000000    11.338
   2.47809  1.41921  0.08856  1.46465  0.697222  0.069848  0.000000     9.982
   2.55880  1.49500  0.11630  1.45147  0.661016  0.077336  0.000000     8.547
   2.65345  1.58305  0.15103  1.43471  0.608554  0.086647  0.000000     7.023
   2.76445  1.68529  0.19425  1.41215  0.529732  0.098666  0.000000     5.369
   2.89461  1.80395  0.24774  1.37502  0.406885  0.117079  0.000000     3.475
   3.04725  1.94165  0.31361  1.73483  0.043801  0.043799  0.000000     1.000
