#    s        x        y     Ue/Vinf    Dstar     Theta      Cf       H
   0.00000  1.00000  0.00126  1.03545  0.055977  0.004162 -0.000236    13.448
   0.00630  0.99392  0.00292  1.04204  0.054999  0.003760 -0.000239    14.626
   0.01727  0.98333  0.00577  1.05513  0.053193  0.002998 -0.000245    17.745
   0.03004  0.97098  0.00904  1.06616  0.051268  0.002399 -0.000420    21.367
   0.04430  0.95718  0.01262  1.06619  0.049561  0.002401 -0.000420    20.643
   0.05958  0.94237  0.01638  1.06620  0.047658  0.002403 -0.000421    19.832
   0.07546  0.92696  0.02021  1.06620  0.045638  0.002406 -0.000421    18.969
   0.09164  0.91123  0.02403  1.06620  0.043558  0.002409 -0.000421    18.083
   0.10799  0.89533  0.02780  1.06621  0.041456  0.002412 -0.000422    17.191
   0.12441  0.87933  0.03149  1.06623  0.039351  0.002414 -0.000423    16.302
   0.14087  0.86327  0.03511  1.06626  0.037262  0.002416 -0.000424    15.425
   0.15734  0.84718  0.03864  1.06631  0.035198  0.002417 -0.000425    14.564
   0.17383  0.83106  0.04208  1.06639  0.033165  0.002417 -0.000427    13.723
   0.19032  0.81492  0.04544  1.06652  0.031171  0.002416 -0.000429    12.904
   0.20680  0.79875  0.04870  1.06669  0.029223  0.002413 -0.000432    12.110
   0.22329  0.78258  0.05188  1.06692  0.027322  0.002409 -0.000436    11.341
   0.23978  0.76638  0.05496  1.06723  0.025476  0.002403 -0.000440    10.601
   0.25626  0.75017  0.05796  1.06763  0.023688  0.002395 -0.000446     9.889
   0.27274  0.73395  0.06086  1.06815  0.021965  0.002385 -0.000453     9.209
   0.28921  0.71772  0.06368  1.06881  0.020309  0.002373 -0.000462     8.560
   0.30568  0.70148  0.06640  1.06964  0.018725  0.002357 -0.000472     7.945
   0.32214  0.68523  0.06902  1.07069  0.017217  0.002338 -0.000486     7.363
   0.33859  0.66898  0.07155  1.07199  0.015790  0.002316 -0.000503     6.818
   0.35503  0.65272  0.07398  1.07360  0.014446  0.002290 -0.000523     6.308
   0.37146  0.63645  0.07632  1.07557  0.013191  0.002260 -0.000548     5.836
   0.38788  0.62019  0.07855  1.07797  0.012026  0.002226 -0.000565     5.402
   0.40429  0.60392  0.08069  1.08087  0.010956  0.002187 -0.000565     5.008
   0.42068  0.58766  0.08272  1.08431  0.009977  0.002144 -0.000524     4.653
   0.43705  0.57140  0.08465  1.08832  0.009096  0.002097 -0.000421     4.338
   0.45341  0.55514  0.08647  1.09281  0.008305  0.002046 -0.000240     4.059
   0.46975  0.53889  0.08818  1.09782  0.007603  0.001992  0.000018     3.816
   0.48606  0.52265  0.08978  1.10339  0.006984  0.001934  0.000346     3.611
   0.50236  0.50642  0.09127  1.10944  0.006442  0.001873  0.000724     3.439
   0.51863  0.49021  0.09264  1.11584  0.005969  0.001810  0.001138     3.297
   0.53487  0.47402  0.09390  1.12244  0.005555  0.001747  0.001575     3.180
   0.55108  0.45785  0.09503  1.12915  0.005184  0.001683  0.002039     3.081
   0.56725  0.44172  0.09603  1.13582  0.004850  0.001619  0.002526     2.995
   0.58335  0.42564  0.09690  1.14242  0.004540  0.001556  0.003055     2.917
   0.59935  0.40965  0.09765  1.14890  0.004245  0.001494  0.003662     2.841
   0.61519  0.39382  0.09824  1.15528  0.003947  0.001431  0.004421     2.758
   0.63085  0.37817  0.09865  1.16065  0.003695  0.001372  0.005157     2.692
   0.64639  0.36263  0.09885  1.16484  0.003481  0.001318  0.005840     2.641
   0.66187  0.34716  0.09884  1.16793  0.003295  0.001267  0.006492     2.600
   0.67728  0.33174  0.09863  1.16988  0.003129  0.001219  0.007114     2.566
   0.69264  0.31639  0.09821  1.17072  0.002979  0.001174  0.007714     2.538
   0.70795  0.30109  0.09757  1.17044  0.002842  0.001131  0.008299     2.514
   0.72321  0.28586  0.09672  1.16901  0.002715  0.001089  0.008871     2.493
   0.73841  0.27069  0.09564  1.16641  0.002595  0.001048  0.009433     2.475
   0.75355  0.25561  0.09433  1.16262  0.002483  0.001009  0.009990     2.460
   0.76863  0.24061  0.09280  1.15758  0.002374  0.000971  0.010555     2.446
   0.78363  0.22571  0.09103  1.15118  0.002271  0.000933  0.011113     2.433
   0.79855  0.21092  0.08902  1.14336  0.002172  0.000896  0.011671     2.423
   0.81339  0.19626  0.08678  1.13407  0.002073  0.000860  0.012257     2.412
   0.82811  0.18175  0.08429  1.12303  0.001979  0.000823  0.012822     2.404
   0.84271  0.16741  0.08155  1.11030  0.001884  0.000787  0.013444     2.394
   0.85717  0.15327  0.07856  1.09544  0.001792  0.000751  0.014041     2.387
   0.87144  0.13937  0.07533  1.07847  0.001699  0.000714  0.014696     2.379
   0.88548  0.12576  0.07185  1.05893  0.001607  0.000677  0.015359     2.372
   0.89921  0.11254  0.06815  1.03664  0.001515  0.000640  0.016061     2.365
   0.91255  0.09978  0.06426  1.01123  0.001423  0.000603  0.016784     2.359
   0.92536  0.08762  0.06020  0.98251  0.001331  0.000566  0.017542     2.352
   0.93750  0.07622  0.05606  0.95024  0.001241  0.000529  0.018326     2.346
   0.94879  0.06572  0.05190  0.91433  0.001152  0.000493  0.019140     2.338
   0.95911  0.05625  0.04782  0.87487  0.001068  0.000458  0.019855     2.332
   0.96837  0.04786  0.04389  0.83233  0.000986  0.000424  0.020623     2.324
   0.97657  0.04055  0.04017  0.78646  0.000911  0.000393  0.021266     2.316
   0.98379  0.03423  0.03668  0.73755  0.000841  0.000364  0.021732     2.309
   0.99012  0.02879  0.03343  0.68563  0.000776  0.000337  0.022062     2.300
   0.99570  0.02411  0.03040  0.63023  0.000717  0.000313  0.022120     2.293
   1.00063  0.02008  0.02756  0.57089  0.000662  0.000290  0.021887     2.284
   1.00502  0.01660  0.02489  0.50678  0.000611  0.000268  0.021219     2.275
   1.00896  0.01357  0.02236  0.43735  0.000564  0.000249  0.019938     2.269
   1.01253  0.01095  0.01995  0.36124  0.000519  0.000230  0.018098     2.257
   1.01577  0.00867  0.01764  0.27670  0.000482  0.000215  0.015092     2.245
   1.01874  0.00671  0.01541  0.18539  0.000443  0.000197  0.010888     2.255
   1.02149  0.00502  0.01324  0.07983  0.000393  0.000176  0.005409     2.230
   1.02404  0.00360  0.01113 -0.03593  0.000393  0.000176  0.002436     2.230
   1.02642  0.00242  0.00906 -0.16210  0.000349  0.000158  0.012505     2.218
   1.02866  0.00148  0.00703 -0.30504  0.000326  0.000147  0.025114     2.221
   1.03077  0.00077  0.00504 -0.45851  0.000309  0.000139  0.040147     2.214
   1.03277  0.00029  0.00309 -0.61965  0.000296  0.000134  0.056475     2.216
   1.03468  0.00004  0.00120 -0.78588  0.000286  0.000129  0.074363     2.214
   1.03651  0.00001 -0.00064 -0.94963  0.000283  0.000127  0.089984     2.225
   1.03838  0.00020 -0.00249 -1.11345  0.000283  0.000127  0.104625     2.231
   1.04030  0.00065 -0.00436 -1.26895  0.000293  0.000130  0.113324     2.252
   1.04230  0.00137 -0.00623 -1.40088  0.000314  0.000137  0.113263     2.285
   1.04439  0.00239 -0.00805 -1.50178  0.000346  0.000149  0.106224     2.323
   1.04657  0.00369 -0.00980 -1.56872  0.000393  0.000165  0.092687     2.377
   1.04888  0.00527 -0.01148 -1.60630  0.000453  0.000186  0.077582     2.436
   1.05132  0.00712 -0.01307 -1.62113  0.000527  0.000210  0.062420     2.507
   1.05393  0.00925 -0.01459 -1.61947  0.000618  0.000239  0.048593     2.588
   1.05675  0.01167 -0.01603 -1.60678  0.000727  0.000271  0.036797     2.681
   1.05979  0.01438 -0.01741 -1.58686  0.000857  0.000307  0.026831     2.790
   1.06312  0.01744 -0.01873 -1.56230  0.001015  0.000347  0.018436     2.926
   1.06679  0.02087 -0.02000 -1.53527  0.001209  0.000391  0.011570     3.096
   1.07086  0.02476 -0.02123 -1.50756  0.001449  0.000437  0.006096     3.314
   1.07542  0.02916 -0.02242 -1.48070  0.001756  0.000487  0.001858     3.609
   1.08058  0.03419 -0.02357 -1.45613  0.002146  0.000537 -0.000940     3.999
   1.08647  0.03998 -0.02467 -1.43444  0.002641  0.000587 -0.002315     4.501
   1.09325  0.04667 -0.02572 -1.41608  0.003271  0.000636 -0.002576     5.140
   1.10108  0.05445 -0.02670 -1.40127  0.004056  0.000684 -0.002344     5.932
   1.11013  0.06345 -0.02758 -1.38957  0.005011  0.000728 -0.002065     6.881
   1.12048  0.07377 -0.02833 -1.38036  0.006135  0.000770 -0.001865     7.968
   1.13215  0.08543 -0.02891 -1.37304  0.007400  0.000809 -0.001719     9.150
   1.14504  0.09832 -0.02929 -1.36712  0.008757  0.000845 -0.001609    10.362
   1.15896  0.11223 -0.02947 -1.36220  0.010137  0.000879 -0.001522    11.526
   1.17368  0.12696 -0.02945 -1.35794  0.011467  0.000913 -0.001450    12.560
   1.18901  0.14228 -0.02924 -1.35411  0.012676  0.000946 -0.001388    13.394
   1.20480  0.15806 -0.02887 -1.35051  0.013698  0.000981 -0.001331    13.967
   1.22092  0.17418 -0.02837 -1.34697  0.014463  0.001017 -0.001279    14.221
   1.23731  0.19056 -0.02776 -1.34334  0.014882  0.001057 -0.001228    14.084
   1.25391  0.20714 -0.02707 -1.32593  0.014914  0.001277 -0.000387    11.676
   1.27067  0.22389 -0.02630 -1.26218  0.014692  0.002211 -0.000347     6.644
   1.28758  0.24078 -0.02549 -1.20845  0.014110  0.003078 -0.000230     4.585
   1.30460  0.25777 -0.02465 -1.16347  0.013373  0.003867  0.000347     3.458
   1.32169  0.27484 -0.02379 -1.13269  0.012608  0.004445  0.001224     2.837
   1.33881  0.29194 -0.02292 -1.11134  0.011913  0.004866  0.002016     2.448
   1.35590  0.30901 -0.02207 -1.09639  0.011331  0.005176  0.002675     2.189
   1.37294  0.32603 -0.02124 -1.08576  0.010858  0.005409  0.003211     2.007
   1.38994  0.34301 -0.02043 -1.07796  0.010483  0.005590  0.003645     1.875
   1.40689  0.35994 -0.01967 -1.07212  0.010185  0.005736  0.003997     1.776
   1.42382  0.37686 -0.01894 -1.06770  0.009942  0.005856  0.004289     1.698
   1.44075  0.39378 -0.01827 -1.06452  0.009733  0.005953  0.004591     1.635
   1.45775  0.41076 -0.01762 -1.06253  0.009544  0.006030  0.004958     1.583
   1.47481  0.42781 -0.01697 -1.06027  0.009433  0.006114  0.005246     1.543
   1.49192  0.44491 -0.01629 -1.05792  0.009374  0.006204  0.005481     1.511
   1.50907  0.46204 -0.01560 -1.05544  0.009358  0.006297  0.005649     1.486
   1.52625  0.47921 -0.01490 -1.05280  0.009372  0.006397  0.005787     1.465
   1.54344  0.49639 -0.01420 -1.05007  0.009410  0.006500  0.005893     1.448
   1.56064  0.51357 -0.01350 -1.04732  0.009469  0.006606  0.005971     1.434
   1.57783  0.53074 -0.01280 -1.04462  0.009542  0.006712  0.006027     1.422
   1.59499  0.54790 -0.01211 -1.04199  0.009625  0.006818  0.006066     1.412
   1.61214  0.56503 -0.01143 -1.03938  0.009718  0.006925  0.006089     1.403
   1.62928  0.58215 -0.01076 -1.03688  0.009816  0.007030  0.006103     1.396
   1.64639  0.59926 -0.01011 -1.03445  0.009920  0.007135  0.006107     1.390
   1.66350  0.61635 -0.00947 -1.03214  0.010027  0.007239  0.006104     1.385
   1.68058  0.63342 -0.00885 -1.02995  0.010134  0.007340  0.006098     1.381
   1.69766  0.65049 -0.00825 -1.02788  0.010242  0.007439  0.006088     1.377
   1.71473  0.66755 -0.00768 -1.02594  0.010350  0.007536  0.006075     1.373
   1.73178  0.68459 -0.00712 -1.02412  0.010457  0.007631  0.006060     1.370
   1.74883  0.70164 -0.00659 -1.02246  0.010561  0.007722  0.006046     1.368
   1.76588  0.71867 -0.00608 -1.02093  0.010663  0.007811  0.006031     1.365
   1.78292  0.73570 -0.00560 -1.01956  0.010761  0.007895  0.006017     1.363
   1.79995  0.75273 -0.00514 -1.01834  0.010855  0.007977  0.006003     1.361
   1.81698  0.76976 -0.00471 -1.01727  0.010946  0.008054  0.005991     1.359
   1.83401  0.78678 -0.00431 -1.01637  0.011031  0.008128  0.005981     1.357
   1.85104  0.80381 -0.00393 -1.01567  0.011109  0.008196  0.005974     1.355
   1.86807  0.82084 -0.00357 -1.01512  0.011182  0.008260  0.005969     1.354
   1.88510  0.83786 -0.00324 -1.01476  0.011248  0.008319  0.005967     1.352
   1.90213  0.85489 -0.00294 -1.01468  0.011303  0.008371  0.005971     1.350
   1.91914  0.87190 -0.00266 -1.01475  0.011353  0.008418  0.005976     1.349
   1.93613  0.88889 -0.00241 -1.01514  0.011389  0.008457  0.005989     1.347
   1.95305  0.90581 -0.00218 -1.01581  0.011413  0.008487  0.006008     1.345
   1.96983  0.92258 -0.00197 -1.01686  0.011420  0.008507  0.006036     1.343
   1.98627  0.93902 -0.00179 -1.01834  0.011408  0.008514  0.006073     1.340
   2.00209  0.95483 -0.00163 -1.02033  0.011372  0.008505  0.006124     1.337
   2.01678  0.96953 -0.00150 -1.02286  0.011309  0.008478  0.006188     1.334
   2.02984  0.98258 -0.00139 -1.02603  0.011212  0.008429  0.006271     1.330
   2.04093  0.99368 -0.00131 -1.02949  0.011099  0.008368  0.006362     1.326
   2.04725  1.00000 -0.00126 -1.03545  0.010858  0.008228  0.006532     1.320
   2.04725  1.00010 -0.00001  1.03545  0.069310  0.012391  0.000000     5.594
   2.05356  1.00636 -0.00082  1.03282  0.068554  0.012629  0.000000     5.428
   2.06096  1.01371 -0.00168  1.02901  0.067485  0.012976  0.000000     5.201
   2.06964  1.02233 -0.00264  1.02435  0.066161  0.013398  0.000000     4.938
   2.07981  1.03245 -0.00373  1.01860  0.064544  0.013920  0.000000     4.637
   2.09174  1.04431 -0.00495  1.01140  0.062589  0.014574  0.000000     4.295
   2.10574  1.05824 -0.00634  1.00217  0.060252  0.015413  0.000000     3.909
   2.12215  1.07457 -0.00791  0.99046  0.057488  0.016480  0.000000     3.488
   2.14139  1.09373 -0.00969  0.97944  0.054173  0.017486  0.000000     3.098
   2.16396  1.11621 -0.01171  0.96928  0.050356  0.018405  0.000000     2.736
   2.19042  1.14257 -0.01399  0.96088  0.046134  0.019153  0.000000     2.409
   2.22145  1.17350 -0.01657  0.95524  0.041686  0.019640  0.000000     2.123
   2.25784  1.20977 -0.01948  0.95305  0.037272  0.019821  0.000000     1.880
   2.30052  1.25232 -0.02278  0.95434  0.033168  0.019720  0.000000     1.682
   2.35057  1.30223 -0.02651  0.95839  0.029593  0.019421  0.000000     1.524
   2.40926  1.36077 -0.03073  0.96398  0.026645  0.019034  0.000000     1.400
   2.47809  1.42943 -0.03550  0.96998  0.024305  0.018642  0.000000     1.304
   2.55880  1.50996 -0.04090  0.97561  0.022489  0.018293  0.000000     1.229
   2.65345  1.60442 -0.04701  0.98052  0.021095  0.018002  0.000000     1.172
   2.76445  1.71519 -0.05395  0.98463  0.020037  0.017766  0.000000     1.128
   2.89461  1.84512 -0.06183  0.98798  0.019241  0.017579  0.000000     1.095
   3.04725  1.99750 -0.07079  0.99226  0.018552  0.017347  0.000000     1.069
