#    s        x        y     Ue/Vinf    Dstar     Theta      Cf       H
   0.00000  1.00000  0.00126  1.04115  0.057841  0.002624 -0.000238    22.047
   0.00630  0.99392  0.00292  1.04523  0.056794  0.002381 -0.000414    23.857
   0.01727  0.98333  0.00577  1.04520  0.055254  0.002384 -0.000413    23.176
   0.03004  0.97098  0.00904  1.04516  0.053408  0.002389 -0.000413    22.358
   0.04430  0.95718  0.01262  1.04511  0.051325  0.002394 -0.000413    21.436
   0.05958  0.94237  0.01638  1.04505  0.049089  0.002400 -0.000412    20.452
   0.07546  0.92696  0.02021  1.04500  0.046772  0.002406 -0.000412    19.438
   0.09164  0.91123  0.02403  1.04494  0.044428  0.002412 -0.000412    18.420
   0.10799  0.89533  0.02780  1.04489  0.042092  0.002417 -0.000412    17.414
   0.12441  0.87933  0.03149  1.04486  0.039778  0.002422 -0.000413    16.426
   0.14087  0.86327  0.03511  1.04485  0.037504  0.002425 -0.000414    15.463
   0.15734  0.84718  0.03864  1.04486  0.035274  0.002428 -0.000415    14.528
   0.17383  0.83106  0.04208  1.04491  0.033095  0.002429 -0.000417    13.623
   0.19032  0.81492  0.04544  1.04500  0.030972  0.002429 -0.000419    12.750
   0.20680  0.79875  0.04870  1.04515  0.028911  0.002428 -0.000422    11.910
   0.22329  0.78258  0.05188  1.04536  0.026913  0.002424 -0.000426    11.103
   0.23978  0.76638  0.05496  1.04567  0.024984  0.002418 -0.000430    10.331
   0.25626  0.75017  0.05796  1.04608  0.023127  0.002410 -0.000436     9.595
   0.27274  0.73395  0.06086  1.04662  0.021347  0.002399 -0.000444     8.897
   0.28921  0.71772  0.06368  1.04732  0.019648  0.002386 -0.000453     8.235
   0.30568  0.70148  0.06640  1.04823  0.018033  0.002369 -0.000465     7.612
   0.32214  0.68523  0.06902  1.04937  0.016505  0.002349 -0.000480     7.028
   0.33859  0.66898  0.07155  1.05080  0.015071  0.002324 -0.000500     6.484
   0.35503  0.65272  0.07398  1.05259  0.013731  0.002296 -0.000523     5.981
   0.37146  0.63645  0.07632  1.05479  0.012490  0.002263 -0.000544     5.520
   0.38788  0.62019  0.07855  1.05747  0.011349  0.002225 -0.000548     5.101
   0.40429  0.60392  0.08069  1.06070  0.010312  0.002183 -0.000519     4.724
   0.42068  0.58766  0.08272  1.06449  0.009375  0.002136 -0.000428     4.390
   0.43705  0.57140  0.08465  1.06879  0.008539  0.002085 -0.000260     4.095
   0.45341  0.55514  0.08647  1.07359  0.007798  0.002031 -0.000011     3.839
   0.46975  0.53889  0.08818  1.07894  0.007149  0.001973  0.000309     3.623
   0.48606  0.52265  0.08978  1.08479  0.006583  0.001911  0.000683     3.444
   0.50236  0.50642  0.09127  1.09100  0.006092  0.001848  0.001091     3.297
   0.51863  0.49021  0.09264  1.09739  0.005666  0.001783  0.001519     3.177
   0.53487  0.47402  0.09390  1.10382  0.005294  0.001719  0.001956     3.079
   0.55108  0.45785  0.09503  1.11022  0.004960  0.001656  0.002412     2.996
   0.56725  0.44172  0.09603  1.11648  0.004659  0.001593  0.002881     2.924
   0.58335  0.42564  0.09690  1.12259  0.004377  0.001532  0.003392     2.858
   0.59935  0.40965  0.09765  1.12851  0.004105  0.001470  0.003976     2.792
   0.61519  0.39382  0.09824  1.13429  0.003827  0.001408  0.004717     2.717
   0.63085  0.37817  0.09865  1.13897  0.003591  0.001351  0.005430     2.658
   0.64639  0.36263  0.09885  1.14242  0.003390  0.001298  0.006090     2.611
   0.66187  0.34716  0.09884  1.14471  0.003214  0.001249  0.006713     2.574
   0.67728  0.33174  0.09863  1.14587  0.003056  0.001202  0.007316     2.543
   0.69264  0.31639  0.09821  1.14586  0.002914  0.001157  0.007892     2.518
   0.70795  0.30109  0.09757  1.14470  0.002782  0.001115  0.008454     2.496
   0.72321  0.28586  0.09672  1.14239  0.002659  0.001074  0.009007     2.476
   0.73841  0.27069  0.09564  1.13885  0.002544  0.001034  0.009548     2.460
   0.75355  0.25561  0.09433  1.13406  0.002436  0.000996  0.010079     2.446
   0.76863  0.24061  0.09280  1.12802  0.002330  0.000958  0.010627     2.432
   0.78363  0.22571  0.09103  1.12052  0.002230  0.000921  0.011159     2.421
   0.79855  0.21092  0.08902  1.11157  0.002132  0.000885  0.011701     2.410
   0.81339  0.19626  0.08678  1.10101  0.002037  0.000848  0.012252     2.401
   0.82811  0.18175  0.08429  1.08869  0.001944  0.000813  0.012801     2.392
   0.84271  0.16741  0.08155  1.07448  0.001852  0.000777  0.013373     2.384
   0.85717  0.15327  0.07856  1.05812  0.001761  0.000741  0.013945     2.377
   0.87144  0.13937  0.07533  1.03946  0.001669  0.000705  0.014563     2.369
   0.88548  0.12576  0.07185  1.01805  0.001579  0.000669  0.015181     2.362
   0.89921  0.11254  0.06815  0.99367  0.001489  0.000632  0.015810     2.356
   0.91255  0.09978  0.06426  0.96604  0.001398  0.000595  0.016479     2.349
   0.92536  0.08762  0.06020  0.93477  0.001308  0.000558  0.017163     2.342
   0.93750  0.07622  0.05606  0.89966  0.001219  0.000522  0.017823     2.336
   0.94879  0.06572  0.05190  0.86076  0.001132  0.000486  0.018502     2.328
   0.95911  0.05625  0.04782  0.81804  0.001048  0.000451  0.019113     2.322
   0.96837  0.04786  0.04389  0.77185  0.000969  0.000419  0.019637     2.315
   0.97657  0.04055  0.04017  0.72232  0.000894  0.000388  0.020089     2.306
   0.98379  0.03423  0.03668  0.66937  0.000826  0.000359  0.020298     2.298
   0.99012  0.02879  0.03343  0.61334  0.000763  0.000333  0.020236     2.292
   0.99570  0.02411  0.03040  0.55378  0.000704  0.000308  0.020010     2.282
   1.00063  0.02008  0.02756  0.49002  0.000651  0.000286  0.019224     2.277
   1.00502  0.01660  0.02489  0.42127  0.000599  0.000265  0.018199     2.262
   1.00896  0.01357  0.02236  0.34695  0.000556  0.000245  0.016121     2.264
   1.01253  0.01095  0.01995  0.26556  0.000510  0.000228  0.013752     2.240
   1.01577  0.00867  0.01764  0.17688  0.000475  0.000210  0.009705     2.256
   1.01874  0.00671  0.01541  0.07702  0.000421  0.000189  0.004878     2.230
   1.02149  0.00502  0.01324 -0.03186  0.000421  0.000189  0.002019     2.230
   1.02404  0.00360  0.01113 -0.15214  0.000368  0.000166  0.011146     2.217
   1.02642  0.00242  0.00906 -0.28705  0.000348  0.000156  0.022114     2.225
   1.02866  0.00148  0.00703 -0.43348  0.000324  0.000147  0.036374     2.208
   1.03077  0.00077  0.00504 -0.59181  0.000307  0.000139  0.052186     2.213
   1.03277  0.00029  0.00309 -0.75762  0.000293  0.000133  0.070143     2.210
   1.03468  0.00004  0.00120 -0.92554  0.000286  0.000129  0.087302     2.218
   1.03651  0.00001 -0.00064 -1.08948  0.000282  0.000127  0.103542     2.223
   1.03838  0.00020 -0.00249 -1.25180  0.000285  0.000127  0.116712     2.235
   1.04030  0.00065 -0.00436 -1.40323  0.000295  0.000131  0.123881     2.256
   1.04230  0.00137 -0.00623 -1.52748  0.000319  0.000139  0.120221     2.296
   1.04439  0.00239 -0.00805 -1.61855  0.000353  0.000151  0.110307     2.339
   1.04657  0.00369 -0.00980 -1.67375  0.000406  0.000169  0.093174     2.404
   1.04888  0.00527 -0.01148 -1.69787  0.000475  0.000191  0.074589     2.482
   1.05132  0.00712 -0.01307 -1.69932  0.000562  0.000218  0.057122     2.573
   1.05393  0.00925 -0.01459 -1.68460  0.000673  0.000250  0.041161     2.691
   1.05675  0.01167 -0.01603 -1.65962  0.000813  0.000286  0.027596     2.842
   1.05979  0.01438 -0.01741 -1.62911  0.000993  0.000326  0.016442     3.040
   1.06312  0.01744 -0.01873 -1.59701  0.001225  0.000370  0.007672     3.312
   1.06679  0.02087 -0.02000 -1.56676  0.001526  0.000414  0.001424     3.686
   1.07086  0.02476 -0.02123 -1.54053  0.001915  0.000457 -0.002158     4.189
   1.07542  0.02916 -0.02242 -1.51867  0.002412  0.000499 -0.003367     4.836
   1.08058  0.03419 -0.02357 -1.50152  0.003036  0.000538 -0.003247     5.648
   1.08647  0.03998 -0.02467 -1.48843  0.003807  0.000573 -0.002845     6.641
   1.09325  0.04667 -0.02572 -1.47843  0.004741  0.000606 -0.002549     7.826
   1.10108  0.05445 -0.02670 -1.47068  0.005854  0.000636 -0.002340     9.209
   1.11013  0.06345 -0.02758 -1.46454  0.007145  0.000663 -0.002185    10.769
   1.12048  0.07377 -0.02833 -1.45955  0.008598  0.000690 -0.002064    12.464
   1.13215  0.08543 -0.02891 -1.45533  0.010165  0.000715 -0.001964    14.207
   1.14504  0.09832 -0.02929 -1.45161  0.011776  0.000741 -0.001877    15.884
   1.15896  0.11223 -0.02947 -1.44821  0.013339  0.000768 -0.001798    17.362
   1.17368  0.12696 -0.02945 -1.44497  0.014760  0.000797 -0.001724    18.519
   1.18901  0.14228 -0.02924 -1.44178  0.015940  0.000828 -0.001653    19.242
   1.20480  0.15806 -0.02887 -1.43849  0.016764  0.000863 -0.001581    19.416
   1.22092  0.17418 -0.02837 -1.41056  0.017280  0.001235 -0.000438    13.988
   1.23731  0.19056 -0.02776 -1.34837  0.017574  0.002214 -0.000399     7.938
   1.25391  0.20714 -0.02707 -1.29841  0.017497  0.003085 -0.000355     5.672
   1.27067  0.22389 -0.02630 -1.25324  0.017228  0.003953 -0.000216     4.358
   1.28758  0.24078 -0.02549 -1.21585  0.016842  0.004734  0.000201     3.557
   1.30460  0.25777 -0.02465 -1.18766  0.016403  0.005365  0.000705     3.058
   1.32169  0.27484 -0.02379 -1.16532  0.015972  0.005892  0.001171     2.711
   1.33881  0.29194 -0.02292 -1.14716  0.015573  0.006341  0.001578     2.456
   1.35590  0.30901 -0.02207 -1.13258  0.015219  0.006717  0.001920     2.266
   1.37294  0.32603 -0.02124 -1.12078  0.014906  0.007032  0.002205     2.120
   1.38994  0.34301 -0.02043 -1.11110  0.014634  0.007301  0.002487     2.004
   1.40689  0.35994 -0.01967 -1.10314  0.014393  0.007530  0.002832     1.911
   1.42382  0.37686 -0.01894 -1.09663  0.014175  0.007726  0.003151     1.835
   1.44075  0.39378 -0.01827 -1.09146  0.013963  0.007890  0.003453     1.770
   1.45775  0.41076 -0.01762 -1.08744  0.013754  0.008025  0.003740     1.714
   1.47481  0.42781 -0.01697 -1.08351  0.013615  0.008161  0.003983     1.668
   1.49192  0.44491 -0.01629 -1.07973  0.013526  0.008296  0.004190     1.630
   1.50907  0.46204 -0.01560 -1.07605  0.013478  0.008431  0.004364     1.599
   1.52625  0.47921 -0.01490 -1.07248  0.013463  0.008565  0.004511     1.572
   1.54344  0.49639 -0.01420 -1.06899  0.013474  0.008700  0.004635     1.549
   1.56064  0.51357 -0.01350 -1.06557  0.013508  0.008834  0.004737     1.529
   1.57783  0.53074 -0.01280 -1.06228  0.013557  0.008968  0.004823     1.512
   1.59499  0.54790 -0.01211 -1.05911  0.013619  0.009099  0.004895     1.497
   1.61214  0.56503 -0.01143 -1.05603  0.013693  0.009230  0.004955     1.483
   1.62928  0.58215 -0.01076 -1.05310  0.013772  0.009358  0.005005     1.472
   1.64639  0.59926 -0.01011 -1.05028  0.013858  0.009485  0.005047     1.461
   1.66350  0.61635 -0.00947 -1.04760  0.013947  0.009609  0.005083     1.452
   1.68058  0.63342 -0.00885 -1.04506  0.014038  0.009729  0.005113     1.443
   1.69766  0.65049 -0.00825 -1.04266  0.014130  0.009847  0.005139     1.435
   1.71473  0.66755 -0.00768 -1.04042  0.014221  0.009961  0.005163     1.428
   1.73178  0.68459 -0.00712 -1.03831  0.014312  0.010071  0.005183     1.421
   1.74883  0.70164 -0.00659 -1.03636  0.014399  0.010177  0.005202     1.415
   1.76588  0.71867 -0.00608 -1.03457  0.014483  0.010279  0.005219     1.409
   1.78292  0.73570 -0.00560 -1.03293  0.014563  0.010376  0.005236     1.404
   1.79995  0.75273 -0.00514 -1.03145  0.014639  0.010469  0.005253     1.398
   1.81698  0.76976 -0.00471 -1.03014  0.014710  0.010557  0.005270     1.393
   1.83401  0.78678 -0.00431 -1.02899  0.014775  0.010639  0.005287     1.389
   1.85104  0.80381 -0.00393 -1.02803  0.014832  0.010715  0.005306     1.384
   1.86807  0.82084 -0.00357 -1.02724  0.014882  0.010786  0.005327     1.380
   1.88510  0.83786 -0.00324 -1.02664  0.014925  0.010851  0.005348     1.375
   1.90213  0.85489 -0.00294 -1.02629  0.014955  0.010907  0.005374     1.371
   1.91914  0.87190 -0.00266 -1.02610  0.014979  0.010957  0.005401     1.367
   1.93613  0.88889 -0.00241 -1.02621  0.014987  0.010997  0.005433     1.363
   1.95305  0.90581 -0.00218 -1.02657  0.014983  0.011028  0.005469     1.359
   1.96983  0.92258 -0.00197 -1.02727  0.014961  0.011046  0.005511     1.354
   1.98627  0.93902 -0.00179 -1.02833  0.014919  0.011051  0.005560     1.350
   2.00209  0.95483 -0.00163 -1.02981  0.014853  0.011039  0.005617     1.346
   2.01678  0.96953 -0.00150 -1.03173  0.014763  0.011010  0.005682     1.341
   2.02984  0.98258 -0.00139 -1.03413  0.014645  0.010960  0.005757     1.336
   2.04093  0.99368 -0.00131 -1.03665  0.014520  0.010901  0.005832     1.332
   2.04725  1.00000 -0.00126 -1.04115  0.014271  0.010762  0.005957     1.326
   2.04725  1.00010 -0.00001  1.04115  0.074587  0.013386  0.000000     5.572
   2.05356  1.00636 -0.00083  1.03913  0.073957  0.013582  0.000000     5.445
   2.06096  1.01370 -0.00169  1.03611  0.073043  0.013876  0.000000     5.264
   2.06964  1.02233 -0.00266  1.03242  0.071902  0.014234  0.000000     5.051
   2.07981  1.03244 -0.00376  1.02791  0.070494  0.014673  0.000000     4.804
   2.09174  1.04431 -0.00500  1.02231  0.068774  0.015217  0.000000     4.519
   2.10574  1.05823 -0.00642  1.01524  0.066687  0.015903  0.000000     4.193
   2.12215  1.07456 -0.00802  1.00612  0.064183  0.016789  0.000000     3.823
   2.14139  1.09372 -0.00985  0.99468  0.061209  0.017903  0.000000     3.419
   2.16396  1.11619 -0.01192  0.98421  0.057643  0.018923  0.000000     3.046
   2.19042  1.14254 -0.01428  0.97458  0.053559  0.019852  0.000000     2.698
   2.22145  1.17346 -0.01697  0.96672  0.049068  0.020595  0.000000     2.383
   2.25784  1.20973 -0.02002  0.96155  0.044374  0.021069  0.000000     2.106
   2.30052  1.25226 -0.02348  0.95964  0.039755  0.021237  0.000000     1.872
   2.35057  1.30215 -0.02743  0.96090  0.035494  0.021132  0.000000     1.680
   2.40926  1.36067 -0.03192  0.96457  0.031802  0.020844  0.000000     1.526
   2.47809  1.42931 -0.03704  0.96951  0.028762  0.020478  0.000000     1.405
   2.55880  1.50981 -0.04287  0.97472  0.026344  0.020112  0.000000     1.310
   2.65345  1.60423 -0.04953  0.97956  0.024459  0.019789  0.000000     1.236
   2.76445  1.71496 -0.05714  0.98374  0.023005  0.019521  0.000000     1.178
   2.89461  1.84483 -0.06585  0.98719  0.021894  0.019306  0.000000     1.134
   3.04725  1.99715 -0.07585  0.99225  0.020891  0.019001  0.000000     1.099
