#    s        x        y     Ue/Vinf    Dstar     Theta      Cf       H
   0.00000  1.00000  0.00126  1.19452  0.303556  0.021823 -0.000159    13.910
   0.00630  0.99392  0.00292  1.19546  0.301472  0.021550 -0.000161    13.990
   0.01727  0.98333  0.00577  1.19714  0.297824  0.021071 -0.000165    14.134
   0.03004  0.97098  0.00904  1.19914  0.293475  0.020510 -0.000169    14.309
   0.04430  0.95718  0.01262  1.20143  0.288557  0.019877 -0.000175    14.517
   0.05958  0.94237  0.01638  1.20398  0.283237  0.019190 -0.000181    14.759
   0.07546  0.92696  0.02021  1.20672  0.277670  0.018467 -0.000189    15.036
   0.09164  0.91123  0.02403  1.20964  0.271964  0.017717 -0.000197    15.350
   0.10799  0.89533  0.02780  1.21271  0.266181  0.016947 -0.000206    15.707
   0.12441  0.87933  0.03149  1.21598  0.260347  0.016152 -0.000216    16.119
   0.14087  0.86327  0.03511  1.21945  0.254482  0.015328 -0.000228    16.602
   0.15734  0.84718  0.03864  1.22313  0.248597  0.014483 -0.000242    17.165
   0.17383  0.83106  0.04208  1.22702  0.242700  0.013614 -0.000258    17.828
   0.19032  0.81492  0.04544  1.23117  0.236789  0.012716 -0.000276    18.621
   0.20680  0.79875  0.04870  1.23562  0.230865  0.011785 -0.000298    19.589
   0.22329  0.78258  0.05188  1.24043  0.224920  0.010815 -0.000326    20.798
   0.23978  0.76638  0.05496  1.24567  0.218947  0.009794 -0.000341    22.356
   0.25626  0.75017  0.05796  1.25145  0.212936  0.008707 -0.000345    24.455
   0.27274  0.73395  0.06086  1.25795  0.206864  0.007536 -0.000348    27.452
   0.28921  0.71772  0.06368  1.26546  0.200694  0.006237 -0.000352    32.175
   0.30568  0.70148  0.06640  1.27476  0.194315  0.004698 -0.000357    41.362
   0.32214  0.68523  0.06902  1.28936  0.187235  0.002269 -0.000366    82.517
   0.33859  0.66898  0.07155  1.28970  0.182115  0.002227 -0.001604    81.794
   0.35503  0.65272  0.07398  1.28986  0.176931  0.002212 -0.001615    79.989
   0.37146  0.63645  0.07632  1.29002  0.171683  0.002198 -0.001626    78.094
   0.38788  0.62019  0.07855  1.29017  0.166384  0.002186 -0.001635    76.117
   0.40429  0.60392  0.08069  1.29032  0.161047  0.002174 -0.001645    74.070
   0.42068  0.58766  0.08272  1.29047  0.155678  0.002164 -0.001653    71.956
   0.43705  0.57140  0.08465  1.29062  0.150285  0.002154 -0.001662    69.781
   0.45341  0.55514  0.08647  1.29076  0.144870  0.002145 -0.001669    67.548
   0.46975  0.53889  0.08818  1.29091  0.139441  0.002137 -0.001676    65.263
   0.48606  0.52265  0.08978  1.29105  0.134000  0.002129 -0.001683    62.928
   0.50236  0.50642  0.09127  1.29119  0.128552  0.002123 -0.001689    60.549
   0.51863  0.49021  0.09264  1.29132  0.123102  0.002118 -0.001694    58.130
   0.53487  0.47402  0.09390  1.29145  0.117654  0.002113 -0.001698    55.676
   0.55108  0.45785  0.09503  1.29158  0.112210  0.002110 -0.001702    53.189
   0.56725  0.44172  0.09603  1.29171  0.106776  0.002107 -0.001706    50.677
   0.58335  0.42564  0.09690  1.29183  0.101361  0.002105 -0.001708    48.147
   0.59935  0.40965  0.09765  1.29194  0.095979  0.002104 -0.001710    45.610
   0.61519  0.39382  0.09824  1.29204  0.090641  0.002105 -0.001712    43.069
   0.63085  0.37817  0.09865  1.29215  0.085423  0.002105 -0.001713    40.582
   0.64639  0.36263  0.09885  1.29227  0.080316  0.002105 -0.001715    38.151
   0.66187  0.34716  0.09884  1.29239  0.075315  0.002105 -0.001717    35.775
   0.67728  0.33174  0.09863  1.29253  0.070423  0.002105 -0.001720    33.458
   0.69264  0.31639  0.09821  1.29269  0.065641  0.002104 -0.001724    31.200
   0.70795  0.30109  0.09757  1.29287  0.060975  0.002102 -0.001728    29.007
   0.72321  0.28586  0.09672  1.29309  0.056432  0.002099 -0.001734    26.881
   0.73841  0.27069  0.09564  1.29336  0.052014  0.002095 -0.001742    24.824
   0.75355  0.25561  0.09433  1.29368  0.047730  0.002090 -0.001752    22.840
   0.76863  0.24061  0.09280  1.29408  0.043584  0.002082 -0.001764    20.931
   0.78363  0.22571  0.09103  1.29458  0.039585  0.002073 -0.001780    19.100
   0.79855  0.21092  0.08902  1.29522  0.035739  0.002060 -0.001800    17.349
   0.81339  0.19626  0.08678  1.29603  0.032052  0.002044 -0.001825    15.681
   0.82811  0.18175  0.08429  1.29710  0.028536  0.002024 -0.001858    14.101
   0.84271  0.16741  0.08155  1.29851  0.025195  0.001998 -0.001900    12.608
   0.85717  0.15327  0.07856  1.30040  0.022048  0.001967 -0.001955    11.212
   0.87144  0.13937  0.07533  1.30294  0.019101  0.001927 -0.002029     9.912
   0.88548  0.12576  0.07185  1.30640  0.016371  0.001879 -0.002130     8.714
   0.89921  0.11254  0.06815  1.31112  0.013879  0.001820 -0.002272     7.627
   0.91255  0.09978  0.06426  1.31756  0.011641  0.001749 -0.002474     6.656
   0.92536  0.08762  0.06020  1.32630  0.009675  0.001666 -0.002754     5.809
   0.93750  0.07622  0.05606  1.33795  0.007995  0.001570 -0.002948     5.093
   0.94879  0.06572  0.05190  1.35294  0.006600  0.001464 -0.002639     4.508
   0.95911  0.05625  0.04782  1.37100  0.005472  0.001353 -0.001301     4.046
   0.96837  0.04786  0.04389  1.39144  0.004581  0.001241  0.001201     3.693
   0.97657  0.04055  0.04017  1.41351  0.003879  0.001131  0.004725     3.430
   0.98379  0.03423  0.03668  1.43610  0.003326  0.001028  0.009019     3.236
   0.99012  0.02879  0.03343  1.45825  0.002884  0.000933  0.013961     3.090
   0.99570  0.02411  0.03040  1.47938  0.002521  0.000847  0.019588     2.975
   1.00063  0.02008  0.02756  1.49900  0.002219  0.000770  0.025847     2.883
   1.00502  0.01660  0.02489  1.51690  0.001960  0.000699  0.033089     2.803
   1.00896  0.01357  0.02236  1.53254  0.001737  0.000635  0.041150     2.736
   1.01253  0.01095  0.01995  1.54561  0.001541  0.000577  0.050549     2.673
   1.01577  0.00867  0.01764  1.55520  0.001371  0.000523  0.060875     2.620
   1.01874  0.00671  0.01541  1.56083  0.001216  0.000474  0.073238     2.566
   1.02149  0.00502  0.01324  1.56061  0.001081  0.000429  0.086889     2.518
   1.02404  0.00360  0.01113  1.55303  0.000959  0.000388  0.102601     2.469
   1.02642  0.00242  0.00906  1.53521  0.000854  0.000352  0.119299     2.425
   1.02866  0.00148  0.00703  1.50441  0.000763  0.000320  0.136561     2.382
   1.03077  0.00077  0.00504  1.45739  0.000688  0.000293  0.152166     2.345
   1.03277  0.00029  0.00309  1.39195  0.000626  0.000271  0.164886     2.311
   1.03468  0.00004  0.00120  1.30712  0.000581  0.000254  0.170593     2.288
   1.03651  0.00001 -0.00064  1.20545  0.000545  0.000240  0.170461     2.270
   1.03838  0.00020 -0.00249  1.08009  0.000517  0.000230  0.164739     2.245
   1.04030  0.00065 -0.00436  0.92996  0.000505  0.000226  0.146770     2.233
   1.04230  0.00137 -0.00623  0.76341  0.000504  0.000227  0.122285     2.219
   1.04439  0.00239 -0.00805  0.58868  0.000520  0.000235  0.091978     2.213
   1.04657  0.00369 -0.00980  0.41912  0.000548  0.000247  0.061816     2.217
   1.04888  0.00527 -0.01148  0.26084  0.000593  0.000269  0.035969     2.205
   1.05132  0.00712 -0.01307  0.12336  0.000664  0.000298  0.014847     2.230
   1.05393  0.00925 -0.01459 -0.00139  0.000665  0.000298  0.000166     2.230
   1.05675  0.01167 -0.01603 -0.10886  0.000782  0.000351  0.011153     2.228
   1.05979  0.01438 -0.01741 -0.20088  0.000857  0.000380  0.018376     2.252
   1.06312  0.01744 -0.01873 -0.28092  0.000942  0.000418  0.023294     2.256
   1.06679  0.02087 -0.02000 -0.35158  0.001036  0.000456  0.026188     2.269
   1.07086  0.02476 -0.02123 -0.41373  0.001140  0.000500  0.027717     2.280
   1.07542  0.02916 -0.02242 -0.46935  0.001251  0.000547  0.028412     2.289
   1.08058  0.03419 -0.02357 -0.51879  0.001381  0.000599  0.028071     2.304
   1.08647  0.03998 -0.02467 -0.56354  0.001516  0.000656  0.027581     2.311
   1.09325  0.04667 -0.02572 -0.60400  0.001672  0.000719  0.026461     2.325
   1.10108  0.05445 -0.02670 -0.64053  0.001842  0.000789  0.025194     2.336
   1.11013  0.06345 -0.02758 -0.67331  0.002033  0.000866  0.023714     2.348
   1.12048  0.07377 -0.02833 -0.70237  0.002242  0.000950  0.022174     2.360
   1.13215  0.08543 -0.02891 -0.72782  0.002465  0.001040  0.020659     2.372
   1.14504  0.09832 -0.02929 -0.74962  0.002704  0.001134  0.019174     2.384
   1.15896  0.11223 -0.02947 -0.76815  0.002947  0.001231  0.017851     2.394
   1.17368  0.12696 -0.02945 -0.78369  0.003195  0.001329  0.016626     2.404
   1.18901  0.14228 -0.02924 -0.79669  0.003442  0.001427  0.015541     2.413
   1.20480  0.15806 -0.02887 -0.80772  0.003683  0.001522  0.014621     2.420
   1.22092  0.17418 -0.02837 -0.81709  0.003921  0.001615  0.013793     2.427
   1.23731  0.19056 -0.02776 -0.82516  0.004152  0.001706  0.013076     2.433
   1.25391  0.20714 -0.02707 -0.83223  0.004374  0.001794  0.012462     2.438
   1.27067  0.22389 -0.02630 -0.83851  0.004588  0.001879  0.011924     2.441
   1.28758  0.24078 -0.02549 -0.84418  0.004794  0.001962  0.011462     2.444
   1.30460  0.25777 -0.02465 -0.84941  0.004988  0.002040  0.011071     2.445
   1.32169  0.27484 -0.02379 -0.85429  0.005173  0.002116  0.010737     2.445
   1.33881  0.29194 -0.02292 -0.85902  0.005341  0.002187  0.010484     2.442
   1.35590  0.30901 -0.02207 -0.86359  0.005498  0.002254  0.010270     2.439
   1.37294  0.32603 -0.02124 -0.86811  0.005641  0.002317  0.010109     2.435
   1.38994  0.34301 -0.02043 -0.87273  0.005765  0.002375  0.010017     2.428
   1.40689  0.35994 -0.01967 -0.87752  0.005870  0.002427  0.009982     2.419
   1.42382  0.37686 -0.01894 -0.88257  0.005957  0.002474  0.010005     2.408
   1.44075  0.39378 -0.01827 -0.88813  0.006014  0.002514  0.010124     2.392
   1.45775  0.41076 -0.01762 -0.89435  0.006044  0.002546  0.010335     2.374
   1.47481  0.42781 -0.01697 -0.90026  0.006111  0.002582  0.010357     2.367
   1.49192  0.44491 -0.01629 -0.90592  0.006194  0.002619  0.010303     2.365
   1.50907  0.46204 -0.01560 -0.91127  0.006288  0.002658  0.010196     2.366
   1.52625  0.47921 -0.01490 -0.91639  0.006385  0.002697  0.010079     2.368
   1.54344  0.49639 -0.01420 -0.92131  0.006481  0.002735  0.009966     2.370
   1.56064  0.51357 -0.01350 -0.92601  0.006579  0.002774  0.009846     2.372
   1.57783  0.53074 -0.01280 -0.93061  0.006669  0.002811  0.009753     2.373
   1.59499  0.54790 -0.01211 -0.93515  0.006753  0.002847  0.009682     2.373
   1.61214  0.56503 -0.01143 -0.93964  0.006831  0.002881  0.009629     2.371
   1.62928  0.58215 -0.01076 -0.94409  0.006904  0.002914  0.009589     2.370
   1.64639  0.59926 -0.01011 -0.94861  0.006967  0.002944  0.009580     2.366
   1.66350  0.61635 -0.00947 -0.95315  0.007024  0.002973  0.009582     2.362
   1.68058  0.63342 -0.00885 -0.95782  0.007070  0.002999  0.009616     2.357
   1.69766  0.65049 -0.00825 -0.96258  0.007110  0.003024  0.009661     2.352
   1.71473  0.66755 -0.00768 -0.96749  0.007141  0.003045  0.009732     2.345
   1.73178  0.68459 -0.00712 -0.97257  0.007163  0.003064  0.009824     2.337
   1.74883  0.70164 -0.00659 -0.97782  0.007178  0.003081  0.009930     2.330
   1.76588  0.71867 -0.00608 -0.98334  0.007181  0.003095  0.010070     2.320
   1.78292  0.73570 -0.00560 -0.98906  0.007179  0.003106  0.010221     2.311
   1.79995  0.75273 -0.00514 -0.99511  0.007163  0.003114  0.010409     2.301
   1.81698  0.76976 -0.00471 -1.00144  0.007142  0.003119  0.010609     2.290
   1.83401  0.78678 -0.00431 -1.00816  0.007108  0.003120  0.010850     2.278
   1.85104  0.80381 -0.00393 -1.01525  0.007066  0.003118  0.011114     2.266
   1.86807  0.82084 -0.00357 -1.02286  0.007009  0.003111  0.011427     2.253
   1.88510  0.83786 -0.00324 -1.03096  0.006943  0.003101  0.011775     2.239
   1.90213  0.85489 -0.00294 -1.03975  0.006859  0.003085  0.012189     2.224
   1.91914  0.87190 -0.00266 -1.04923  0.006763  0.003064  0.012655     2.207
   1.93613  0.88889 -0.00241 -1.05955  0.006652  0.003037  0.013196     2.190
   1.95305  0.90581 -0.00218 -1.07098  0.006516  0.003003  0.013854     2.170
   1.96983  0.92258 -0.00197 -1.08362  0.006359  0.002960  0.014635     2.148
   1.98627  0.93902 -0.00179 -1.09775  0.006174  0.002907  0.015594     2.123
   2.00209  0.95483 -0.00163 -1.11358  0.005956  0.002843  0.016788     2.095
   2.01678  0.96953 -0.00150 -1.13109  0.005708  0.002767  0.018263     2.063
   2.02984  0.98258 -0.00139 -1.15062  0.005416  0.002675  0.020192     2.025
   2.04093  0.99368 -0.00131 -1.17169  0.005100  0.002572  0.022555     1.983
   2.04725  1.00000 -0.00126 -1.19452  0.004664  0.002437  0.026476     1.914
   2.04725  1.00010 -0.00001  1.19452  0.310696  0.024260  0.000000    12.807
   2.05356  1.00636 -0.00079  1.19301  0.311019  0.024715  0.000000    12.584
   2.06096  1.01372 -0.00151  1.19111  0.311178  0.025292  0.000000    12.303
   2.06964  1.02237 -0.00222  1.18887  0.311274  0.025973  0.000000    11.985
   2.07981  1.03252 -0.00294  1.18624  0.311271  0.026778  0.000000    11.624
   2.09174  1.04443 -0.00364  1.18316  0.311134  0.027731  0.000000    11.220
   2.10574  1.05841 -0.00431  1.17953  0.310808  0.028860  0.000000    10.769
   2.12215  1.07481 -0.00491  1.17526  0.310225  0.030201  0.000000    10.272
   2.14139  1.09404 -0.00539  1.17023  0.309289  0.031795  0.000000     9.728
   2.16396  1.11661 -0.00571  1.16431  0.307879  0.033695  0.000000     9.137
   2.19042  1.14307 -0.00579  1.15731  0.305835  0.035965  0.000000     8.504
   2.22145  1.17410 -0.00551  1.14903  0.302951  0.038689  0.000000     7.830
   2.25784  1.21049 -0.00477  1.13920  0.298963  0.041970  0.000000     7.123
   2.30052  1.25314 -0.00340  1.12748  0.293538  0.045947  0.000000     6.389
   2.35057  1.30314 -0.00119  1.11340  0.286261  0.050814  0.000000     5.634
   2.40926  1.36174  0.00209  1.09626  0.276644  0.056865  0.000000     4.865
   2.47809  1.43041  0.00677  1.07474  0.264189  0.064655  0.000000     4.086
   2.55880  1.51086  0.01320  1.04650  0.248538  0.075238  0.000000     3.303
   2.65345  1.60512  0.02185  1.02206  0.227971  0.084672  0.000000     2.692
   2.76445  1.71553  0.03326  1.00501  0.202298  0.091261  0.000000     2.217
   2.89461  1.84484  0.04809  1.00037  0.171105  0.092976  0.000000     1.840
   3.04725  1.99630  0.06713  1.06995  0.103469  0.072839  0.000000     1.421
