#    s        x        y     Ue/Vinf    Dstar     Theta      Cf       H
   0.00000  1.00000  0.00126  1.11737  0.111224  0.003893 -0.000275    28.568
   0.00630  0.99392  0.00292  1.11741  0.110157  0.003891 -0.000807    28.308
   0.01727  0.98333  0.00577  1.11747  0.108213  0.003889 -0.000808    27.825
   0.03004  0.97098  0.00904  1.11752  0.105873  0.003887 -0.000809    27.237
   0.04430  0.95718  0.01262  1.11759  0.103209  0.003886 -0.000810    26.561
   0.05958  0.94237  0.01638  1.11765  0.100316  0.003885 -0.000811    25.824
   0.07546  0.92696  0.02021  1.11771  0.097279  0.003884 -0.000812    25.047
   0.09164  0.91123  0.02403  1.11777  0.094163  0.003883 -0.000813    24.248
   0.10799  0.89533  0.02780  1.11784  0.091008  0.003883 -0.000814    23.439
   0.12441  0.87933  0.03149  1.11790  0.087834  0.003882 -0.000815    22.624
   0.14087  0.86327  0.03511  1.11798  0.084659  0.003882 -0.000816    21.810
   0.15734  0.84718  0.03864  1.11805  0.081488  0.003881 -0.000818    20.998
   0.17383  0.83106  0.04208  1.11814  0.078331  0.003879 -0.000819    20.191
   0.19032  0.81492  0.04544  1.11823  0.075191  0.003878 -0.000821    19.390
   0.20680  0.79875  0.04870  1.11834  0.072075  0.003875 -0.000823    18.598
   0.22329  0.78258  0.05188  1.11846  0.068983  0.003872 -0.000826    17.814
   0.23978  0.76638  0.05496  1.11860  0.065920  0.003869 -0.000828    17.039
   0.25626  0.75017  0.05796  1.11875  0.062892  0.003864 -0.000832    16.276
   0.27274  0.73395  0.06086  1.11893  0.059901  0.003858 -0.000835    15.525
   0.28921  0.71772  0.06368  1.11915  0.056949  0.003851 -0.000839    14.787
   0.30568  0.70148  0.06640  1.11939  0.054041  0.003843 -0.000844    14.063
   0.32214  0.68523  0.06902  1.11968  0.051178  0.003833 -0.000850    13.352
   0.33859  0.66898  0.07155  1.12002  0.048367  0.003821 -0.000857    12.658
   0.35503  0.65272  0.07398  1.12042  0.045608  0.003807 -0.000864    11.979
   0.37146  0.63645  0.07632  1.12089  0.042907  0.003791 -0.000873    11.317
   0.38788  0.62019  0.07855  1.12144  0.040264  0.003773 -0.000884    10.673
   0.40429  0.60392  0.08069  1.12210  0.037688  0.003751 -0.000896    10.047
   0.42068  0.58766  0.08272  1.12289  0.035177  0.003726 -0.000911     9.440
   0.43705  0.57140  0.08465  1.12382  0.032741  0.003698 -0.000928     8.853
   0.45341  0.55514  0.08647  1.12492  0.030379  0.003666 -0.000949     8.287
   0.46975  0.53889  0.08818  1.12624  0.028098  0.003629 -0.000975     7.742
   0.48606  0.52265  0.08978  1.12781  0.025901  0.003588 -0.001006     7.219
   0.50236  0.50642  0.09127  1.12970  0.023794  0.003541 -0.001044     6.719
   0.51863  0.49021  0.09264  1.13195  0.021781  0.003489 -0.001091     6.243
   0.53487  0.47402  0.09390  1.13466  0.019867  0.003429 -0.001145     5.793
   0.55108  0.45785  0.09503  1.13790  0.018051  0.003363 -0.001184     5.367
   0.56725  0.44172  0.09603  1.14179  0.016343  0.003289 -0.001183     4.969
   0.58335  0.42564  0.09690  1.14640  0.014742  0.003207 -0.001080     4.596
   0.59935  0.40965  0.09765  1.15179  0.013255  0.003118 -0.000795     4.251
   0.61519  0.39382  0.09824  1.15786  0.011874  0.003023 -0.000243     3.928
   0.63085  0.37817  0.09865  1.16475  0.010663  0.002920  0.000572     3.652
   0.64639  0.36263  0.09885  1.17247  0.009613  0.002809  0.001617     3.422
   0.66187  0.34716  0.09884  1.18081  0.008711  0.002693  0.002840     3.235
   0.67728  0.33174  0.09863  1.18942  0.007939  0.002575  0.004191     3.083
   0.69264  0.31639  0.09821  1.19794  0.007279  0.002459  0.005618     2.961
   0.70795  0.30109  0.09757  1.20600  0.006716  0.002346  0.007075     2.863
   0.72321  0.28586  0.09672  1.21335  0.006230  0.002238  0.008542     2.784
   0.73841  0.27069  0.09564  1.21978  0.005809  0.002136  0.009994     2.720
   0.75355  0.25561  0.09433  1.22515  0.005438  0.002039  0.011428     2.668
   0.76863  0.24061  0.09280  1.22936  0.005109  0.001946  0.012842     2.625
   0.78363  0.22571  0.09103  1.23233  0.004812  0.001858  0.014229     2.590
   0.79855  0.21092  0.08902  1.23404  0.004541  0.001773  0.015605     2.561
   0.81339  0.19626  0.08678  1.23442  0.004290  0.001692  0.016987     2.536
   0.82811  0.18175  0.08429  1.23339  0.004056  0.001613  0.018357     2.515
   0.84271  0.16741  0.08155  1.23096  0.003833  0.001535  0.019764     2.497
   0.85717  0.15327  0.07856  1.22700  0.003619  0.001459  0.021226     2.481
   0.87144  0.13937  0.07533  1.22134  0.003414  0.001383  0.022715     2.468
   0.88548  0.12576  0.07185  1.21394  0.003214  0.001309  0.024282     2.456
   0.89921  0.11254  0.06815  1.20463  0.003019  0.001234  0.025922     2.446
   0.91255  0.09978  0.06426  1.19331  0.002825  0.001160  0.027733     2.435
   0.92536  0.08762  0.06020  1.17969  0.002638  0.001087  0.029613     2.427
   0.93750  0.07622  0.05606  1.16384  0.002452  0.001014  0.031720     2.418
   0.94879  0.06572  0.05190  1.14554  0.002275  0.000944  0.033911     2.410
   0.95911  0.05625  0.04782  1.12501  0.002103  0.000876  0.036336     2.402
   0.96837  0.04786  0.04389  1.10219  0.001943  0.000812  0.038835     2.394
   0.97657  0.04055  0.04017  1.07727  0.001791  0.000751  0.041555     2.384
   0.98379  0.03423  0.03668  1.05006  0.001653  0.000696  0.044274     2.376
   0.99012  0.02879  0.03343  1.02062  0.001524  0.000644  0.047071     2.367
   0.99570  0.02411  0.03040  0.98868  0.001405  0.000596  0.049876     2.358
   1.00063  0.02008  0.02756  0.95386  0.001295  0.000551  0.052721     2.349
   1.00502  0.01660  0.02489  0.91542  0.001192  0.000510  0.055609     2.337
   1.00896  0.01357  0.02236  0.87259  0.001099  0.000472  0.057957     2.328
   1.01253  0.01095  0.01995  0.82484  0.001009  0.000436  0.060433     2.315
   1.01577  0.00867  0.01764  0.77057  0.000929  0.000403  0.061885     2.306
   1.01874  0.00671  0.01541  0.70907  0.000852  0.000372  0.062807     2.293
   1.02149  0.00502  0.01324  0.63827  0.000783  0.000343  0.062254     2.280
   1.02404  0.00360  0.01113  0.55699  0.000721  0.000317  0.059595     2.270
   1.02642  0.00242  0.00906  0.46415  0.000664  0.000293  0.054355     2.261
   1.02866  0.00148  0.00703  0.35693  0.000613  0.000274  0.046024     2.242
   1.03077  0.00077  0.00504  0.23702  0.000575  0.000256  0.032406     2.248
   1.03277  0.00029  0.00309  0.10230  0.000527  0.000236  0.015531     2.230
   1.03468  0.00004  0.00120 -0.04287  0.000527  0.000236  0.006508     2.230
   1.03651  0.00001 -0.00064 -0.18826  0.000509  0.000229  0.029675     2.226
   1.03838  0.00020 -0.00249 -0.34637  0.000495  0.000223  0.056184     2.225
   1.04030  0.00065 -0.00436 -0.50771  0.000504  0.000225  0.079939     2.239
   1.04230  0.00137 -0.00623 -0.65910  0.000527  0.000234  0.098320     2.248
   1.04439  0.00239 -0.00805 -0.79361  0.000564  0.000249  0.108959     2.265
   1.04657  0.00369 -0.00980 -0.90380  0.000621  0.000271  0.109925     2.292
   1.04888  0.00527 -0.01148 -0.99023  0.000690  0.000298  0.106165     2.314
   1.05132  0.00712 -0.01307 -1.05519  0.000776  0.000331  0.097691     2.345
   1.05393  0.00925 -0.01459 -1.10255  0.000874  0.000368  0.088133     2.373
   1.05675  0.01167 -0.01603 -1.13677  0.000983  0.000410  0.078579     2.401
   1.05979  0.01438 -0.01741 -1.16068  0.001106  0.000455  0.069181     2.431
   1.06312  0.01744 -0.01873 -1.17688  0.001241  0.000505  0.060710     2.460
   1.06679  0.02087 -0.02000 -1.18736  0.001388  0.000558  0.053192     2.487
   1.07086  0.02476 -0.02123 -1.19339  0.001550  0.000616  0.046482     2.515
   1.07542  0.02916 -0.02242 -1.19576  0.001730  0.000680  0.040409     2.545
   1.08058  0.03419 -0.02357 -1.19530  0.001927  0.000749  0.035146     2.573
   1.08647  0.03998 -0.02467 -1.19247  0.002146  0.000825  0.030476     2.601
   1.09325  0.04667 -0.02572 -1.18771  0.002390  0.000909  0.026394     2.629
   1.10108  0.05445 -0.02670 -1.18113  0.002665  0.001002  0.022708     2.659
   1.11013  0.06345 -0.02758 -1.17309  0.002970  0.001104  0.019523     2.689
   1.12048  0.07377 -0.02833 -1.16395  0.003305  0.001216  0.016788     2.719
   1.13215  0.08543 -0.02891 -1.15397  0.003671  0.001335  0.014420     2.749
   1.14504  0.09832 -0.02929 -1.14365  0.004057  0.001461  0.012466     2.777
   1.15896  0.11223 -0.02947 -1.13328  0.004460  0.001590  0.010825     2.806
   1.17368  0.12696 -0.02945 -1.12320  0.004868  0.001719  0.009495     2.831
   1.18901  0.14228 -0.02924 -1.11355  0.005279  0.001849  0.008396     2.855
   1.20480  0.15806 -0.02887 -1.10449  0.005681  0.001976  0.007519     2.876
   1.22092  0.17418 -0.02837 -1.09598  0.006079  0.002100  0.006787     2.895
   1.23731  0.19056 -0.02776 -1.08809  0.006463  0.002221  0.006203     2.910
   1.25391  0.20714 -0.02707 -1.08077  0.006832  0.002339  0.005729     2.921
   1.27067  0.22389 -0.02630 -1.07399  0.007188  0.002453  0.005341     2.930
   1.28758  0.24078 -0.02549 -1.06774  0.007523  0.002564  0.005037     2.935
   1.30460  0.25777 -0.02465 -1.06201  0.007838  0.002670  0.004803     2.936
   1.32169  0.27484 -0.02379 -1.05677  0.008129  0.002772  0.004631     2.932
   1.33881  0.29194 -0.02292 -1.05203  0.008393  0.002870  0.004517     2.925
   1.35590  0.30901 -0.02207 -1.04777  0.008632  0.002963  0.004447     2.913
   1.37294  0.32603 -0.02124 -1.04400  0.008838  0.003051  0.004430     2.897
   1.38994  0.34301 -0.02043 -1.04073  0.009012  0.003133  0.004462     2.876
   1.40689  0.35994 -0.01967 -1.03793  0.009153  0.003210  0.004536     2.852
   1.42382  0.37686 -0.01894 -1.03566  0.009257  0.003280  0.004662     2.822
   1.44075  0.39378 -0.01827 -1.03396  0.009320  0.003344  0.004844     2.787
   1.45775  0.41076 -0.01762 -1.03286  0.009343  0.003401  0.005082     2.747
   1.47481  0.42781 -0.01697 -1.03187  0.009402  0.003457  0.005228     2.719
   1.49192  0.44491 -0.01629 -1.03101  0.009477  0.003514  0.005324     2.697
   1.50907  0.46204 -0.01560 -1.03022  0.009571  0.003569  0.005373     2.681
   1.52625  0.47921 -0.01490 -1.02952  0.009671  0.003625  0.005397     2.668
   1.54344  0.49639 -0.01420 -1.02887  0.009779  0.003679  0.005400     2.658
   1.56064  0.51357 -0.01350 -1.02828  0.009891  0.003733  0.005389     2.650
   1.57783  0.53074 -0.01280 -1.02777  0.010002  0.003785  0.005374     2.642
   1.59499  0.54790 -0.01211 -1.02733  0.010109  0.003836  0.005361     2.635
   1.61214  0.56503 -0.01143 -1.02698  0.010213  0.003886  0.005348     2.628
   1.62928  0.58215 -0.01076 -1.02671  0.010311  0.003934  0.005340     2.621
   1.64639  0.59926 -0.01011 -1.02655  0.010401  0.003980  0.005341     2.613
   1.66350  0.61635 -0.00947 -1.02649  0.010483  0.004025  0.005350     2.605
   1.68058  0.63342 -0.00885 -1.02657  0.010555  0.004067  0.005372     2.595
   1.69766  0.65049 -0.00825 -1.02678  0.010616  0.004107  0.005405     2.585
   1.71473  0.66755 -0.00768 -1.02713  0.010666  0.004144  0.005450     2.574
   1.73178  0.68459 -0.00712 -1.02764  0.010704  0.004179  0.005509     2.561
   1.74883  0.70164 -0.00659 -1.02832  0.010730  0.004211  0.005580     2.548
   1.76588  0.71867 -0.00608 -1.02919  0.010743  0.004240  0.005669     2.534
   1.78292  0.73570 -0.00560 -1.03026  0.010742  0.004266  0.005771     2.518
   1.79995  0.75273 -0.00514 -1.03155  0.010728  0.004289  0.005892     2.501
   1.81698  0.76976 -0.00471 -1.03307  0.010699  0.004308  0.006029     2.484
   1.83401  0.78678 -0.00431 -1.03486  0.010655  0.004323  0.006187     2.465
   1.85104  0.80381 -0.00393 -1.03694  0.010595  0.004334  0.006366     2.444
   1.86807  0.82084 -0.00357 -1.03935  0.010518  0.004341  0.006570     2.423
   1.88510  0.83786 -0.00324 -1.04212  0.010423  0.004342  0.006801     2.400
   1.90213  0.85489 -0.00294 -1.04533  0.010306  0.004338  0.007068     2.376
   1.91914  0.87190 -0.00266 -1.04899  0.010171  0.004328  0.007369     2.350
   1.93613  0.88889 -0.00241 -1.05323  0.010011  0.004310  0.007719     2.323
   1.95305  0.90581 -0.00218 -1.05813  0.009824  0.004284  0.008128     2.293
   1.96983  0.92258 -0.00197 -1.06383  0.009606  0.004249  0.008610     2.261
   1.98627  0.93902 -0.00179 -1.07044  0.009353  0.004202  0.009184     2.226
   2.00209  0.95483 -0.00163 -1.07809  0.009064  0.004142  0.009870     2.188
   2.01678  0.96953 -0.00150 -1.08677  0.008741  0.004070  0.010682     2.148
   2.02984  0.98258 -0.00139 -1.09648  0.008383  0.003983  0.011652     2.105
   2.04093  0.99368 -0.00131 -1.10682  0.008015  0.003888  0.012743     2.062
   2.04725  1.00000 -0.00126 -1.11737  0.007589  0.003775  0.014157     2.010
   2.04725  1.00010 -0.00001  1.11737  0.121288  0.007669  0.000000    15.816
   2.05356  1.00636 -0.00081  1.11455  0.120865  0.008014  0.000000    15.081
   2.06096  1.01371 -0.00163  1.11088  0.120123  0.008467  0.000000    14.187
   2.06964  1.02234 -0.00251  1.10648  0.119137  0.009011  0.000000    13.222
   2.07981  1.03247 -0.00349  1.10117  0.117857  0.009672  0.000000    12.186
   2.09174  1.04436 -0.00455  1.09479  0.116207  0.010469  0.000000    11.100
   2.10574  1.05830 -0.00572  1.08713  0.114098  0.011434  0.000000     9.979
   2.12215  1.07466 -0.00700  1.07788  0.111414  0.012604  0.000000     8.839
   2.14139  1.09385 -0.00838  1.06666  0.108016  0.014034  0.000000     7.697
   2.16396  1.11637 -0.00987  1.05294  0.103739  0.015796  0.000000     6.568
   2.19042  1.14278 -0.01148  1.03585  0.098408  0.018009  0.000000     5.464
   2.22145  1.17377 -0.01318  1.01391  0.091881  0.020890  0.000000     4.398
   2.25784  1.21012 -0.01497  0.98880  0.083960  0.024240  0.000000     3.464
   2.30052  1.25275 -0.01683  0.96659  0.074647  0.027218  0.000000     2.743
   2.35057  1.30277 -0.01873  0.95043  0.064565  0.029351  0.000000     2.200
   2.40926  1.36143 -0.02063  0.94324  0.054742  0.030256  0.000000     1.809
   2.47809  1.43023 -0.02248  0.94497  0.046269  0.030054  0.000000     1.540
   2.55880  1.51092 -0.02422  0.95244  0.039736  0.029248  0.000000     1.359
   2.65345  1.60556 -0.02575  0.96175  0.035073  0.028325  0.000000     1.238
   2.76445  1.71655 -0.02698  0.97042  0.031870  0.027524  0.000000     1.158
   2.89461  1.84671 -0.02778  0.97760  0.029701  0.026895  0.000000     1.104
   3.04725  1.99935 -0.02800  0.98698  0.027893  0.026114  0.000000     1.068
