#    s        x        y     Ue/Vinf    Dstar     Theta      Cf       H
   0.00000  1.00000  0.00126  1.25222  0.408265  0.030260 -0.000120    13.492
   0.00630  0.99392  0.00292  1.25283  0.405835  0.030032 -0.000121    13.513
   0.01727  0.98333  0.00577  1.25391  0.401595  0.029635 -0.000123    13.551
   0.03004  0.97098  0.00904  1.25518  0.396520  0.029172 -0.000125    13.592
   0.04430  0.95718  0.01262  1.25662  0.390759  0.028654 -0.000127    13.637
   0.05958  0.94237  0.01638  1.25820  0.384506  0.028098 -0.000130    13.685
   0.07546  0.92696  0.02021  1.25988  0.377942  0.027517 -0.000133    13.735
   0.09164  0.91123  0.02403  1.26163  0.371193  0.026921 -0.000136    13.788
   0.10799  0.89533  0.02780  1.26344  0.364333  0.026316 -0.000139    13.844
   0.12441  0.87933  0.03149  1.26532  0.357403  0.025705 -0.000143    13.904
   0.14087  0.86327  0.03511  1.26725  0.350428  0.025088 -0.000146    13.968
   0.15734  0.84718  0.03864  1.26924  0.343417  0.024465 -0.000150    14.037
   0.17383  0.83106  0.04208  1.27130  0.336382  0.023837 -0.000155    14.111
   0.19032  0.81492  0.04544  1.27342  0.329327  0.023204 -0.000159    14.193
   0.20680  0.79875  0.04870  1.27562  0.322257  0.022565 -0.000164    14.281
   0.22329  0.78258  0.05188  1.27789  0.315173  0.021920 -0.000169    14.378
   0.23978  0.76638  0.05496  1.28024  0.308077  0.021268 -0.000174    14.485
   0.25626  0.75017  0.05796  1.28268  0.300975  0.020610 -0.000180    14.604
   0.27274  0.73395  0.06086  1.28522  0.293868  0.019943 -0.000186    14.735
   0.28921  0.71772  0.06368  1.28786  0.286755  0.019268 -0.000193    14.882
   0.30568  0.70148  0.06640  1.29061  0.279642  0.018584 -0.000200    15.047
   0.32214  0.68523  0.06902  1.29348  0.272524  0.017891 -0.000208    15.233
   0.33859  0.66898  0.07155  1.29648  0.265410  0.017187 -0.000217    15.443
   0.35503  0.65272  0.07398  1.29963  0.258296  0.016470 -0.000227    15.682
   0.37146  0.63645  0.07632  1.30295  0.251183  0.015741 -0.000238    15.957
   0.38788  0.62019  0.07855  1.30647  0.244068  0.014991 -0.000250    16.280
   0.40429  0.60392  0.08069  1.31023  0.236951  0.014217 -0.000264    16.666
   0.42068  0.58766  0.08272  1.31422  0.229835  0.013424 -0.000280    17.121
   0.43705  0.57140  0.08465  1.31848  0.222723  0.012608 -0.000299    17.665
   0.45341  0.55514  0.08647  1.32305  0.215610  0.011767 -0.000321    18.324
   0.46975  0.53889  0.08818  1.32799  0.208494  0.010895 -0.000347    19.137
   0.48606  0.52265  0.08978  1.33335  0.201371  0.009985 -0.000380    20.167
   0.50236  0.50642  0.09127  1.33925  0.194231  0.009029 -0.000395    21.512
   0.51863  0.49021  0.09264  1.34583  0.187069  0.008012 -0.000398    23.349
   0.53487  0.47402  0.09390  1.35329  0.179862  0.006915 -0.000403    26.011
   0.55108  0.45785  0.09503  1.36203  0.172574  0.005697 -0.000408    30.289
   0.56725  0.44172  0.09603  1.37302  0.165105  0.004248 -0.000415    38.870
   0.58335  0.42564  0.09690  1.39173  0.156876  0.001708 -0.000426    91.856
   0.59935  0.40965  0.09765  1.39221  0.150616  0.001663 -0.002316    90.549
   0.61519  0.39382  0.09824  1.39248  0.144308  0.001643 -0.002346    87.827
   0.63085  0.37817  0.09865  1.39276  0.138033  0.001624 -0.002375    85.008
   0.64639  0.36263  0.09885  1.39305  0.131792  0.001605 -0.002404    82.115
   0.66187  0.34716  0.09884  1.39334  0.125587  0.001587 -0.002433    79.155
   0.67728  0.33174  0.09863  1.39365  0.119424  0.001568 -0.002462    76.140
   0.69264  0.31639  0.09821  1.39397  0.113308  0.001551 -0.002492    73.073
   0.70795  0.30109  0.09757  1.39431  0.107244  0.001533 -0.002522    69.960
   0.72321  0.28586  0.09672  1.39467  0.101243  0.001515 -0.002553    66.810
   0.73841  0.27069  0.09564  1.39505  0.095306  0.001498 -0.002584    63.623
   0.75355  0.25561  0.09433  1.39545  0.089443  0.001481 -0.002617    60.409
   0.76863  0.24061  0.09280  1.39588  0.083656  0.001463 -0.002650    57.167
   0.78363  0.22571  0.09103  1.39634  0.077957  0.001446 -0.002684    53.910
   0.79855  0.21092  0.08902  1.39683  0.072350  0.001429 -0.002720    50.640
   0.81339  0.19626  0.08678  1.39737  0.066838  0.001411 -0.002757    47.358
   0.82811  0.18175  0.08429  1.39796  0.061434  0.001394 -0.002796    44.078
   0.84271  0.16741  0.08155  1.39860  0.056142  0.001376 -0.002837    40.803
   0.85717  0.15327  0.07856  1.39931  0.050974  0.001358 -0.002880    37.540
   0.87144  0.13937  0.07533  1.40011  0.045944  0.001339 -0.002927    34.305
   0.88548  0.12576  0.07185  1.40101  0.041068  0.001320 -0.002977    31.110
   0.89921  0.11254  0.06815  1.40205  0.036372  0.001300 -0.003033    27.976
   0.91255  0.09978  0.06426  1.40325  0.031887  0.001279 -0.003096    24.930
   0.92536  0.08762  0.06020  1.40467  0.027657  0.001257 -0.003167    22.011
   0.93750  0.07622  0.05606  1.40638  0.023723  0.001232 -0.003251    19.252
   0.94879  0.06572  0.05190  1.40846  0.020143  0.001206 -0.003350    16.708
   0.95911  0.05625  0.04782  1.41103  0.016945  0.001176 -0.003471    14.405
   0.96837  0.04786  0.04389  1.41426  0.014152  0.001144 -0.003621    12.374
   0.97657  0.04055  0.04017  1.41835  0.011752  0.001107 -0.003811    10.612
   0.98379  0.03423  0.03668  1.42354  0.009715  0.001067 -0.004055     9.102
   0.99012  0.02879  0.03343  1.43017  0.008002  0.001023 -0.004380     7.821
   0.99570  0.02411  0.03040  1.43864  0.006569  0.000975 -0.004827     6.740
   1.00063  0.02008  0.02756  1.44948  0.005375  0.000922 -0.005431     5.832
   1.00502  0.01660  0.02489  1.46335  0.004383  0.000864 -0.005846     5.072
   1.00896  0.01357  0.02236  1.48085  0.003571  0.000802 -0.005037     4.450
   1.01253  0.01095  0.01995  1.50199  0.002902  0.000738 -0.001370     3.934
   1.01577  0.00867  0.01764  1.52673  0.002364  0.000670  0.006099     3.526
   1.01874  0.00671  0.01541  1.55443  0.001932  0.000602  0.017734     3.210
   1.02149  0.00502  0.01324  1.58291  0.001590  0.000535  0.033469     2.970
   1.02404  0.00360  0.01113  1.60905  0.001318  0.000474  0.053578     2.783
   1.02642  0.00242  0.00906  1.62854  0.001108  0.000419  0.076626     2.645
   1.02866  0.00148  0.00703  1.63748  0.000940  0.000371  0.103442     2.531
   1.03077  0.00077  0.00504  1.63029  0.000814  0.000332  0.129351     2.451
   1.03277  0.00029  0.00309  1.60419  0.000714  0.000300  0.155864     2.380
   1.03468  0.00004  0.00120  1.55508  0.000646  0.000276  0.174089     2.339
   1.03651  0.00001 -0.00064  1.48530  0.000591  0.000257  0.188558     2.299
   1.03838  0.00020 -0.00249  1.38807  0.000552  0.000243  0.193901     2.270
   1.04030  0.00065 -0.00436  1.26173  0.000525  0.000234  0.190295     2.240
   1.04230  0.00137 -0.00623  1.10823  0.000517  0.000233  0.173273     2.219
   1.04439  0.00239 -0.00805  0.93950  0.000526  0.000238  0.145317     2.210
   1.04657  0.00369 -0.00980  0.76798  0.000548  0.000249  0.115127     2.200
   1.04888  0.00527 -0.01148  0.60258  0.000586  0.000266  0.084343     2.202
   1.05132  0.00712 -0.01307  0.45153  0.000632  0.000287  0.058336     2.206
   1.05393  0.00925 -0.01459  0.31519  0.000685  0.000310  0.037446     2.210
   1.05675  0.01167 -0.01603  0.19281  0.000757  0.000343  0.020786     2.206
   1.05979  0.01438 -0.01741  0.08813  0.000850  0.000381  0.008295     2.230
   1.06312  0.01744 -0.01873 -0.00903  0.000850  0.000381  0.000849     2.230
   1.06679  0.02087 -0.02000 -0.09394  0.001016  0.000453  0.007327     2.240
   1.07086  0.02476 -0.02123 -0.16912  0.001085  0.000485  0.012379     2.238
   1.07542  0.02916 -0.02242 -0.23863  0.001189  0.000526  0.015601     2.261
   1.08058  0.03419 -0.02357 -0.30067  0.001311  0.000578  0.017719     2.268
   1.08647  0.03998 -0.02467 -0.35833  0.001431  0.000630  0.019262     2.272
   1.09325  0.04667 -0.02572 -0.41146  0.001575  0.000689  0.019836     2.287
   1.10108  0.05445 -0.02670 -0.46003  0.001733  0.000755  0.019972     2.296
   1.11013  0.06345 -0.02758 -0.50461  0.001906  0.000827  0.019737     2.306
   1.12048  0.07377 -0.02833 -0.54507  0.002096  0.000905  0.019196     2.316
   1.13215  0.08543 -0.02891 -0.58130  0.002300  0.000989  0.018486     2.326
   1.14504  0.09832 -0.02929 -0.61304  0.002518  0.001077  0.017620     2.337
   1.15896  0.11223 -0.02947 -0.64060  0.002739  0.001168  0.016788     2.346
   1.17368  0.12696 -0.02945 -0.66463  0.002957  0.001257  0.016037     2.352
   1.18901  0.14228 -0.02924 -0.68510  0.003184  0.001348  0.015195     2.362
   1.20480  0.15806 -0.02887 -0.70290  0.003398  0.001436  0.014536     2.367
   1.22092  0.17418 -0.02837 -0.71838  0.003612  0.001522  0.013893     2.374
   1.23731  0.19056 -0.02776 -0.73203  0.003817  0.001605  0.013333     2.378
   1.25391  0.20714 -0.02707 -0.74415  0.004017  0.001686  0.012826     2.383
   1.27067  0.22389 -0.02630 -0.75515  0.004204  0.001763  0.012410     2.385
   1.28758  0.24078 -0.02549 -0.76508  0.004390  0.001839  0.012001     2.388
   1.30460  0.25777 -0.02465 -0.77435  0.004560  0.001910  0.011698     2.388
   1.32169  0.27484 -0.02379 -0.78296  0.004725  0.001978  0.011406     2.388
   1.33881  0.29194 -0.02292 -0.79119  0.004873  0.002042  0.011200     2.386
   1.35590  0.30901 -0.02207 -0.79901  0.005014  0.002103  0.011013     2.384
   1.37294  0.32603 -0.02124 -0.80662  0.005140  0.002159  0.010886     2.381
   1.38994  0.34301 -0.02043 -0.81414  0.005251  0.002211  0.010811     2.375
   1.40689  0.35994 -0.01967 -0.82170  0.005345  0.002257  0.010798     2.368
   1.42382  0.37686 -0.01894 -0.82942  0.005423  0.002299  0.010839     2.359
   1.44075  0.39378 -0.01827 -0.83759  0.005473  0.002333  0.010982     2.346
   1.45775  0.41076 -0.01762 -0.84635  0.005500  0.002360  0.011208     2.330
   1.47481  0.42781 -0.01697 -0.85482  0.005559  0.002390  0.011253     2.326
   1.49192  0.44491 -0.01629 -0.86286  0.005637  0.002423  0.011191     2.326
   1.50907  0.46204 -0.01560 -0.87055  0.005720  0.002456  0.011104     2.329
   1.52625  0.47921 -0.01490 -0.87790  0.005807  0.002491  0.010997     2.332
   1.54344  0.49639 -0.01420 -0.88499  0.005892  0.002524  0.010903     2.334
   1.56064  0.51357 -0.01350 -0.89185  0.005974  0.002558  0.010819     2.336
   1.57783  0.53074 -0.01280 -0.89856  0.006050  0.002590  0.010758     2.336
   1.59499  0.54790 -0.01211 -0.90518  0.006119  0.002620  0.010722     2.336
   1.61214  0.56503 -0.01143 -0.91174  0.006182  0.002649  0.010707     2.334
   1.62928  0.58215 -0.01076 -0.91825  0.006241  0.002676  0.010703     2.332
   1.64639  0.59926 -0.01011 -0.92485  0.006287  0.002701  0.010742     2.328
   1.66350  0.61635 -0.00947 -0.93143  0.006333  0.002725  0.010776     2.324
   1.68058  0.63342 -0.00885 -0.93816  0.006366  0.002745  0.010853     2.319
   1.69766  0.65049 -0.00825 -0.94501  0.006393  0.002764  0.010946     2.313
   1.71473  0.66755 -0.00768 -0.95198  0.006415  0.002780  0.011050     2.307
   1.73178  0.68459 -0.00712 -0.95918  0.006426  0.002794  0.011190     2.300
   1.74883  0.70164 -0.00659 -0.96656  0.006432  0.002805  0.011342     2.293
   1.76588  0.71867 -0.00608 -0.97424  0.006427  0.002813  0.011531     2.284
   1.78292  0.73570 -0.00560 -0.98217  0.006417  0.002819  0.011734     2.276
   1.79995  0.75273 -0.00514 -0.99047  0.006395  0.002822  0.011977     2.267
   1.81698  0.76976 -0.00471 -0.99910  0.006369  0.002822  0.012234     2.257
   1.83401  0.78678 -0.00431 -1.00818  0.006331  0.002818  0.012539     2.247
   1.85104  0.80381 -0.00393 -1.01773  0.006285  0.002811  0.012876     2.236
   1.86807  0.82084 -0.00357 -1.02787  0.006226  0.002799  0.013267     2.224
   1.88510  0.83786 -0.00324 -1.03864  0.006158  0.002784  0.013707     2.212
   1.90213  0.85489 -0.00294 -1.05020  0.006076  0.002764  0.014219     2.198
   1.91914  0.87190 -0.00266 -1.06264  0.005980  0.002739  0.014806     2.183
   1.93613  0.88889 -0.00241 -1.07609  0.005871  0.002708  0.015480     2.168
   1.95305  0.90581 -0.00218 -1.09093  0.005738  0.002670  0.016310     2.149
   1.96983  0.92258 -0.00197 -1.10724  0.005588  0.002624  0.017288     2.130
   1.98627  0.93902 -0.00179 -1.12544  0.005409  0.002568  0.018507     2.107
   2.00209  0.95483 -0.00163 -1.14577  0.005200  0.002500  0.020036     2.080
   2.01678  0.96953 -0.00150 -1.16828  0.004960  0.002421  0.021954     2.049
   2.02984  0.98258 -0.00139 -1.19355  0.004674  0.002325  0.024545     2.010
   2.04093  0.99368 -0.00131 -1.22122  0.004361  0.002217  0.027832     1.967
   2.04725  1.00000 -0.00126 -1.25222  0.003906  0.002070  0.033797     1.887
   2.04725  1.00010 -0.00001  1.25222  0.414647  0.032330  0.000000    12.826
   2.05356  1.00636 -0.00078  1.25113  0.415239  0.032747  0.000000    12.680
   2.06096  1.01373 -0.00145  1.24975  0.415704  0.033278  0.000000    12.492
   2.06964  1.02238 -0.00208  1.24813  0.416156  0.033906  0.000000    12.274
   2.07981  1.03254 -0.00267  1.24623  0.416562  0.034647  0.000000    12.023
   2.09174  1.04446 -0.00320  1.24399  0.416888  0.035523  0.000000    11.736
   2.10574  1.05845 -0.00362  1.24135  0.417085  0.036560  0.000000    11.408
   2.12215  1.07486 -0.00388  1.23825  0.417086  0.037790  0.000000    11.037
   2.14139  1.09410 -0.00393  1.23460  0.416799  0.039249  0.000000    10.619
   2.16396  1.11666 -0.00368  1.23029  0.416099  0.040985  0.000000    10.152
   2.19042  1.14312 -0.00301  1.22521  0.414817  0.043053  0.000000     9.635
   2.22145  1.17413 -0.00178  1.21921  0.412729  0.045522  0.000000     9.066
   2.25784  1.21047  0.00018  1.21209  0.409535  0.048482  0.000000     8.447
   2.30052  1.25304  0.00310  1.20363  0.404835  0.052041  0.000000     7.779
   2.35057  1.30292  0.00727  1.19352  0.398091  0.056344  0.000000     7.065
   2.40926  1.36133  0.01302  1.18136  0.388582  0.061585  0.000000     6.310
   2.47809  1.42971  0.02077  1.16657  0.375328  0.068044  0.000000     5.516
   2.55880  1.50977  0.03105  1.14814  0.356992  0.076187  0.000000     4.686
   2.65345  1.60346  0.04447  1.12385  0.331791  0.087078  0.000000     3.810
   2.76445  1.71310  0.06177  1.09354  0.296136  0.100861  0.000000     2.936
   2.89461  1.84138  0.08384  1.07880  0.242373  0.107353  0.000000     2.258
   3.04725  1.99145  0.11175  1.20342  0.099821  0.070581  0.000000     1.414
