#    s        x        y     Ue/Vinf    Dstar     Theta      Cf       H
   0.00000  1.00000  0.00126  1.20130  0.319260  0.022920 -0.000152    13.930
   0.00630  0.99392  0.00292  1.20215  0.317115  0.022664 -0.000154    13.992
   0.01727  0.98333  0.00577  1.20364  0.313365  0.022216 -0.000157    14.105
   0.03004  0.97098  0.00904  1.20542  0.308892  0.021692 -0.000161    14.240
   0.04430  0.95718  0.01262  1.20746  0.303830  0.021103 -0.000166    14.397
   0.05958  0.94237  0.01638  1.20971  0.298354  0.020467 -0.000171    14.578
   0.07546  0.92696  0.02021  1.21212  0.292621  0.019798 -0.000177    14.780
   0.09164  0.91123  0.02403  1.21468  0.286744  0.019108 -0.000183    15.007
   0.10799  0.89533  0.02780  1.21735  0.280787  0.018402 -0.000191    15.258
   0.12441  0.87933  0.03149  1.22015  0.274783  0.017682 -0.000199    15.540
   0.14087  0.86327  0.03511  1.22308  0.268756  0.016950 -0.000208    15.856
   0.15734  0.84718  0.03864  1.22615  0.262710  0.016201 -0.000217    16.215
   0.17383  0.83106  0.04208  1.22942  0.256646  0.015426 -0.000229    16.637
   0.19032  0.81492  0.04544  1.23286  0.250575  0.014634 -0.000241    17.123
   0.20680  0.79875  0.04870  1.23650  0.244501  0.013823 -0.000256    17.688
   0.22329  0.78258  0.05188  1.24035  0.238420  0.012990 -0.000273    18.354
   0.23978  0.76638  0.05496  1.24445  0.232333  0.012131 -0.000292    19.151
   0.25626  0.75017  0.05796  1.24884  0.226238  0.011243 -0.000316    20.123
   0.27274  0.73395  0.06086  1.25358  0.220132  0.010317 -0.000345    21.336
   0.28921  0.71772  0.06368  1.25873  0.214003  0.009347 -0.000349    22.896
   0.30568  0.70148  0.06640  1.26442  0.207844  0.008317 -0.000352    24.990
   0.32214  0.68523  0.06902  1.27077  0.201635  0.007213 -0.000355    27.953
   0.33859  0.66898  0.07155  1.27809  0.195343  0.005995 -0.000359    32.585
   0.35503  0.65272  0.07398  1.28706  0.188871  0.004566 -0.000364    41.368
   0.37146  0.63645  0.07632  1.30036  0.181863  0.002482 -0.000372    73.260
   0.38788  0.62019  0.07855  1.30294  0.176276  0.002124 -0.001698    82.981
   0.40429  0.60392  0.08069  1.30312  0.170926  0.002109 -0.001712    81.064
   0.42068  0.58766  0.08272  1.30329  0.165508  0.002094 -0.001724    79.044
   0.43705  0.57140  0.08465  1.30346  0.160044  0.002080 -0.001736    76.938
   0.45341  0.55514  0.08647  1.30363  0.154539  0.002067 -0.001747    74.750
   0.46975  0.53889  0.08818  1.30380  0.149006  0.002056 -0.001758    72.489
   0.48606  0.52265  0.08978  1.30397  0.143448  0.002045 -0.001768    70.158
   0.50236  0.50642  0.09127  1.30414  0.137871  0.002035 -0.001778    67.762
   0.51863  0.49021  0.09264  1.30430  0.132282  0.002026 -0.001787    65.307
   0.53487  0.47402  0.09390  1.30447  0.126684  0.002017 -0.001795    62.794
   0.55108  0.45785  0.09503  1.30463  0.121081  0.002010 -0.001802    60.230
   0.56725  0.44172  0.09603  1.30478  0.115480  0.002004 -0.001809    57.620
   0.58335  0.42564  0.09690  1.30494  0.109891  0.001999 -0.001814    54.972
   0.59935  0.40965  0.09765  1.30509  0.104325  0.001995 -0.001819    52.294
   0.61519  0.39382  0.09824  1.30522  0.098797  0.001992 -0.001823    49.593
   0.63085  0.37817  0.09865  1.30537  0.093382  0.001990 -0.001827    46.933
   0.64639  0.36263  0.09885  1.30551  0.088069  0.001987 -0.001831    44.315
   0.66187  0.34716  0.09884  1.30567  0.082857  0.001985 -0.001835    41.741
   0.67728  0.33174  0.09863  1.30584  0.077746  0.001983 -0.001839    39.215
   0.69264  0.31639  0.09821  1.30602  0.072737  0.001980 -0.001844    36.740
   0.70795  0.30109  0.09757  1.30622  0.067835  0.001977 -0.001850    34.319
   0.72321  0.28586  0.09672  1.30645  0.063049  0.001973 -0.001857    31.959
   0.73841  0.27069  0.09564  1.30671  0.058378  0.001968 -0.001865    29.661
   0.75355  0.25561  0.09433  1.30701  0.053833  0.001963 -0.001874    27.430
   0.76863  0.24061  0.09280  1.30737  0.049417  0.001956 -0.001885    25.268
   0.78363  0.22571  0.09103  1.30780  0.045138  0.001947 -0.001899    23.181
   0.79855  0.21092  0.08902  1.30832  0.041002  0.001937 -0.001917    21.170
   0.81339  0.19626  0.08678  1.30897  0.037015  0.001924 -0.001938    19.239
   0.82811  0.18175  0.08429  1.30978  0.033187  0.001908 -0.001964    17.392
   0.84271  0.16741  0.08155  1.31082  0.029524  0.001889 -0.001998    15.632
   0.85717  0.15327  0.07856  1.31217  0.026042  0.001865 -0.002041    13.966
   0.87144  0.13937  0.07533  1.31396  0.022747  0.001835 -0.002097    12.396
   0.88548  0.12576  0.07185  1.31636  0.019659  0.001798 -0.002170    10.931
   0.89921  0.11254  0.06815  1.31961  0.016798  0.001753 -0.002270     9.580
   0.91255  0.09978  0.06426  1.32404  0.014182  0.001699 -0.002408     8.348
   0.92536  0.08762  0.06020  1.33010  0.011839  0.001633 -0.002603     7.247
   0.93750  0.07622  0.05606  1.33831  0.009788  0.001557 -0.002884     6.287
   0.94879  0.06572  0.05190  1.34924  0.008043  0.001469 -0.003214     5.474
   0.95911  0.05625  0.04782  1.36338  0.006603  0.001373 -0.003272     4.810
   0.96837  0.04786  0.04389  1.38072  0.005443  0.001271 -0.002456     4.283
   0.97657  0.04055  0.04017  1.40055  0.004527  0.001168 -0.000355     3.874
   0.98379  0.03423  0.03668  1.42231  0.003806  0.001068  0.003031     3.564
   0.99012  0.02879  0.03343  1.44514  0.003237  0.000971  0.007517     3.332
   0.99570  0.02411  0.03040  1.46809  0.002782  0.000882  0.012955     3.155
   1.00063  0.02008  0.02756  1.49034  0.002413  0.000799  0.019239     3.019
   1.00502  0.01660  0.02489  1.51136  0.002105  0.000724  0.026603     2.906
   1.00896  0.01357  0.02236  1.53045  0.001847  0.000656  0.034838     2.815
   1.01253  0.01095  0.01995  1.54724  0.001624  0.000594  0.044487     2.735
   1.01577  0.00867  0.01764  1.56082  0.001432  0.000537  0.055417     2.666
   1.01874  0.00671  0.01541  1.57034  0.001263  0.000486  0.068194     2.601
   1.02149  0.00502  0.01324  1.57421  0.001116  0.000439  0.082368     2.545
   1.02404  0.00360  0.01113  1.57089  0.000986  0.000396  0.098677     2.491
   1.02642  0.00242  0.00906  1.55756  0.000874  0.000358  0.116432     2.440
   1.02866  0.00148  0.00703  1.53126  0.000779  0.000325  0.134326     2.396
   1.03077  0.00077  0.00504  1.48911  0.000698  0.000297  0.151868     2.354
   1.03277  0.00029  0.00309  1.42788  0.000634  0.000274  0.165931     2.318
   1.03468  0.00004  0.00120  1.34709  0.000587  0.000256  0.173191     2.293
   1.03651  0.00001 -0.00064  1.24877  0.000550  0.000242  0.174932     2.271
   1.03838  0.00020 -0.00249  1.12642  0.000521  0.000232  0.169912     2.248
   1.04030  0.00065 -0.00436  0.97984  0.000507  0.000227  0.153494     2.237
   1.04230  0.00137 -0.00623  0.81352  0.000503  0.000227  0.131483     2.212
   1.04439  0.00239 -0.00805  0.63839  0.000523  0.000236  0.098610     2.219
   1.04657  0.00369 -0.00980  0.46858  0.000545  0.000247  0.070159     2.206
   1.04888  0.00527 -0.01148  0.30918  0.000591  0.000266  0.042187     2.221
   1.05132  0.00712 -0.01307  0.16654  0.000639  0.000288  0.021163     2.213
   1.05393  0.00925 -0.01459  0.04395  0.000735  0.000330  0.004781     2.230
   1.05675  0.01167 -0.01603 -0.06573  0.000735  0.000330  0.007151     2.230
   1.05979  0.01438 -0.01741 -0.16208  0.000857  0.000379  0.014705     2.261
   1.06312  0.01744 -0.01873 -0.24340  0.000936  0.000417  0.020566     2.242
   1.06679  0.02087 -0.02000 -0.31599  0.001034  0.000455  0.023569     2.270
   1.07086  0.02476 -0.02123 -0.38029  0.001128  0.000497  0.026000     2.269
   1.07542  0.02916 -0.02242 -0.43797  0.001243  0.000544  0.026736     2.287
   1.08058  0.03419 -0.02357 -0.48927  0.001368  0.000596  0.026900     2.297
   1.08647  0.03998 -0.02467 -0.53571  0.001505  0.000652  0.026514     2.307
   1.09325  0.04667 -0.02572 -0.57806  0.001655  0.000714  0.025771     2.317
   1.10108  0.05445 -0.02670 -0.61632  0.001825  0.000783  0.024593     2.330
   1.11013  0.06345 -0.02758 -0.65060  0.002015  0.000860  0.023248     2.343
   1.12048  0.07377 -0.02833 -0.68125  0.002219  0.000943  0.021878     2.353
   1.13215  0.08543 -0.02891 -0.70819  0.002440  0.001032  0.020447     2.365
   1.14504  0.09832 -0.02929 -0.73141  0.002674  0.001126  0.019059     2.376
   1.15896  0.11223 -0.02947 -0.75118  0.002915  0.001222  0.017777     2.386
   1.17368  0.12696 -0.02945 -0.76788  0.003159  0.001318  0.016610     2.396
   1.18901  0.14228 -0.02924 -0.78192  0.003402  0.001415  0.015563     2.405
   1.20480  0.15806 -0.02887 -0.79391  0.003638  0.001509  0.014674     2.412
   1.22092  0.17418 -0.02837 -0.80407  0.003875  0.001601  0.013846     2.419
   1.23731  0.19056 -0.02776 -0.81292  0.004100  0.001691  0.013164     2.424
   1.25391  0.20714 -0.02707 -0.82069  0.004318  0.001778  0.012562     2.429
   1.27067  0.22389 -0.02630 -0.82759  0.004530  0.001862  0.012026     2.433
   1.28758  0.24078 -0.02549 -0.83384  0.004731  0.001943  0.011576     2.435
   1.30460  0.25777 -0.02465 -0.83964  0.004921  0.002021  0.011201     2.435
   1.32169  0.27484 -0.02379 -0.84502  0.005104  0.002095  0.010863     2.436
   1.33881  0.29194 -0.02292 -0.85024  0.005268  0.002165  0.010620     2.433
   1.35590  0.30901 -0.02207 -0.85522  0.005425  0.002232  0.010395     2.431
   1.37294  0.32603 -0.02124 -0.86019  0.005563  0.002293  0.010251     2.426
   1.38994  0.34301 -0.02043 -0.86522  0.005684  0.002350  0.010162     2.419
   1.40689  0.35994 -0.01967 -0.87038  0.005789  0.002402  0.010122     2.411
   1.42382  0.37686 -0.01894 -0.87582  0.005873  0.002448  0.010152     2.399
   1.44075  0.39378 -0.01827 -0.88172  0.005931  0.002487  0.010270     2.385
   1.45775  0.41076 -0.01762 -0.88827  0.005961  0.002518  0.010477     2.367
   1.47481  0.42781 -0.01697 -0.89456  0.006025  0.002553  0.010510     2.360
   1.49192  0.44491 -0.01629 -0.90053  0.006108  0.002590  0.010449     2.359
   1.50907  0.46204 -0.01560 -0.90622  0.006200  0.002627  0.010348     2.360
   1.52625  0.47921 -0.01490 -0.91163  0.006296  0.002666  0.010227     2.362
   1.54344  0.49639 -0.01420 -0.91683  0.006392  0.002703  0.010112     2.364
   1.56064  0.51357 -0.01350 -0.92184  0.006486  0.002741  0.010001     2.366
   1.57783  0.53074 -0.01280 -0.92672  0.006574  0.002778  0.009910     2.367
   1.59499  0.54790 -0.01211 -0.93153  0.006656  0.002813  0.009841     2.367
   1.61214  0.56503 -0.01143 -0.93631  0.006732  0.002846  0.009794     2.365
   1.62928  0.58215 -0.01076 -0.94104  0.006802  0.002878  0.009759     2.363
   1.64639  0.59926 -0.01011 -0.94583  0.006863  0.002908  0.009754     2.360
   1.66350  0.61635 -0.00947 -0.95066  0.006917  0.002936  0.009763     2.356
   1.68058  0.63342 -0.00885 -0.95560  0.006962  0.002961  0.009800     2.351
   1.69766  0.65049 -0.00825 -0.96062  0.007001  0.002985  0.009849     2.346
   1.71473  0.66755 -0.00768 -0.96581  0.007030  0.003006  0.009927     2.339
   1.73178  0.68459 -0.00712 -0.97117  0.007050  0.003024  0.010023     2.331
   1.74883  0.70164 -0.00659 -0.97670  0.007064  0.003040  0.010134     2.324
   1.76588  0.71867 -0.00608 -0.98251  0.007066  0.003053  0.010281     2.315
   1.78292  0.73570 -0.00560 -0.98852  0.007063  0.003063  0.010438     2.306
   1.79995  0.75273 -0.00514 -0.99486  0.007047  0.003070  0.010631     2.295
   1.81698  0.76976 -0.00471 -1.00148  0.007025  0.003074  0.010838     2.285
   1.83401  0.78678 -0.00431 -1.00851  0.006990  0.003075  0.011087     2.273
   1.85104  0.80381 -0.00393 -1.01591  0.006948  0.003072  0.011358     2.262
   1.86807  0.82084 -0.00357 -1.02385  0.006891  0.003065  0.011681     2.248
   1.88510  0.83786 -0.00324 -1.03228  0.006825  0.003054  0.012037     2.235
   1.90213  0.85489 -0.00294 -1.04141  0.006743  0.003038  0.012461     2.220
   1.91914  0.87190 -0.00266 -1.05126  0.006648  0.003016  0.012941     2.204
   1.93613  0.88889 -0.00241 -1.06196  0.006537  0.002989  0.013495     2.187
   1.95305  0.90581 -0.00218 -1.07379  0.006403  0.002954  0.014171     2.167
   1.96983  0.92258 -0.00197 -1.08686  0.006247  0.002912  0.014973     2.146
   1.98627  0.93902 -0.00179 -1.10145  0.006065  0.002859  0.015955     2.121
   2.00209  0.95483 -0.00163 -1.11778  0.005849  0.002794  0.017184     2.093
   2.01678  0.96953 -0.00150 -1.13583  0.005604  0.002718  0.018700     2.062
   2.02984  0.98258 -0.00139 -1.15595  0.005315  0.002626  0.020691     2.024
   2.04093  0.99368 -0.00131 -1.17768  0.005002  0.002524  0.023139     1.982
   2.04725  1.00000 -0.00126 -1.20130  0.004565  0.002387  0.027250     1.912
   2.04725  1.00010 -0.00001  1.20130  0.326300  0.025307  0.000000    12.894
   2.05356  1.00636 -0.00079  1.19992  0.326667  0.025741  0.000000    12.691
   2.06096  1.01373 -0.00150  1.19818  0.326881  0.026292  0.000000    12.433
   2.06964  1.02237 -0.00221  1.19613  0.327043  0.026943  0.000000    12.138
   2.07981  1.03252 -0.00290  1.19372  0.327119  0.027712  0.000000    11.804
   2.09174  1.04444 -0.00358  1.19089  0.327075  0.028623  0.000000    11.427
   2.10574  1.05842 -0.00422  1.18755  0.326860  0.029703  0.000000    11.004
   2.12215  1.07482 -0.00477  1.18363  0.326405  0.030985  0.000000    10.534
   2.14139  1.09405 -0.00520  1.17901  0.325620  0.032509  0.000000    10.016
   2.16396  1.11662 -0.00544  1.17356  0.324384  0.034326  0.000000     9.450
   2.19042  1.14308 -0.00541  1.16712  0.322539  0.036495  0.000000     8.838
   2.22145  1.17411 -0.00500  1.15950  0.319882  0.039096  0.000000     8.182
   2.25784  1.21049 -0.00409  1.15046  0.316145  0.042226  0.000000     7.487
   2.30052  1.25314 -0.00251  1.13968  0.310989  0.046012  0.000000     6.759
   2.35057  1.30313 -0.00003  1.12675  0.303981  0.050629  0.000000     6.004
   2.40926  1.36171  0.00359  1.11108  0.294586  0.056330  0.000000     5.230
   2.47809  1.43034  0.00869  1.09166  0.282186  0.063545  0.000000     4.441
   2.55880  1.51075  0.01566  1.06629  0.266231  0.073237  0.000000     3.635
   2.65345  1.60495  0.02497  1.03829  0.245392  0.084273  0.000000     2.912
   2.76445  1.71527  0.03720  1.01859  0.217903  0.092103  0.000000     2.366
   2.89461  1.84446  0.05304  1.01192  0.182915  0.094649  0.000000     1.933
   3.04725  1.99575  0.07331  1.09001  0.103281  0.071977  0.000000     1.435
