#    s        x        y     Ue/Vinf    Dstar     Theta      Cf       H
   0.00000  1.00000  0.00126  1.15451  0.151921  0.003407 -0.000293    44.592
   0.00630  0.99392  0.00292  1.15454  0.150662  0.003404 -0.000945    44.254
   0.01727  0.98333  0.00577  1.15459  0.148391  0.003401 -0.000946    43.628
   0.03004  0.97098  0.00904  1.15465  0.145654  0.003399 -0.000947    42.855
   0.04430  0.95718  0.01262  1.15470  0.142532  0.003397 -0.000948    41.960
   0.05958  0.94237  0.01638  1.15475  0.139132  0.003396 -0.000949    40.973
   0.07546  0.92696  0.02021  1.15480  0.135552  0.003395 -0.000950    39.925
   0.09164  0.91123  0.02403  1.15485  0.131867  0.003395 -0.000950    38.838
   0.10799  0.89533  0.02780  1.15489  0.128120  0.003396 -0.000950    37.727
   0.12441  0.87933  0.03149  1.15493  0.124336  0.003397 -0.000951    36.599
   0.14087  0.86327  0.03511  1.15497  0.120532  0.003399 -0.000951    35.463
   0.15734  0.84718  0.03864  1.15501  0.116716  0.003401 -0.000951    34.321
   0.17383  0.83106  0.04208  1.15504  0.112896  0.003403 -0.000951    33.176
   0.19032  0.81492  0.04544  1.15507  0.109077  0.003405 -0.000951    32.031
   0.20680  0.79875  0.04870  1.15511  0.105266  0.003408 -0.000951    30.889
   0.22329  0.78258  0.05188  1.15514  0.101462  0.003410 -0.000951    29.750
   0.23978  0.76638  0.05496  1.15518  0.097670  0.003413 -0.000951    28.616
   0.25626  0.75017  0.05796  1.15521  0.093896  0.003416 -0.000952    27.489
   0.27274  0.73395  0.06086  1.15525  0.090142  0.003418 -0.000952    26.371
   0.28921  0.71772  0.06368  1.15530  0.086410  0.003421 -0.000953    25.262
   0.30568  0.70148  0.06640  1.15535  0.082704  0.003423 -0.000953    24.164
   0.32214  0.68523  0.06902  1.15540  0.079025  0.003424 -0.000954    23.077
   0.33859  0.66898  0.07155  1.15546  0.075379  0.003426 -0.000956    22.005
   0.35503  0.65272  0.07398  1.15554  0.071767  0.003426 -0.000957    20.946
   0.37146  0.63645  0.07632  1.15562  0.068193  0.003426 -0.000959    19.902
   0.38788  0.62019  0.07855  1.15573  0.064658  0.003426 -0.000962    18.874
   0.40429  0.60392  0.08069  1.15585  0.061170  0.003424 -0.000965    17.865
   0.42068  0.58766  0.08272  1.15601  0.057727  0.003421 -0.000968    16.873
   0.43705  0.57140  0.08465  1.15619  0.054337  0.003417 -0.000973    15.901
   0.45341  0.55514  0.08647  1.15642  0.050999  0.003411 -0.000979    14.949
   0.46975  0.53889  0.08818  1.15670  0.047722  0.003404 -0.000985    14.020
   0.48606  0.52265  0.08978  1.15704  0.044505  0.003394 -0.000993    13.112
   0.50236  0.50642  0.09127  1.15746  0.041357  0.003382 -0.001003    12.228
   0.51863  0.49021  0.09264  1.15799  0.038281  0.003367 -0.001015    11.369
   0.53487  0.47402  0.09390  1.15865  0.035282  0.003349 -0.001030    10.537
   0.55108  0.45785  0.09503  1.15947  0.032364  0.003326 -0.001049     9.730
   0.56725  0.44172  0.09603  1.16050  0.029535  0.003299 -0.001073     8.952
   0.58335  0.42564  0.09690  1.16179  0.026803  0.003267 -0.001103     8.204
   0.59935  0.40965  0.09765  1.16342  0.024178  0.003229 -0.001141     7.488
   0.61519  0.39382  0.09824  1.16546  0.021670  0.003184 -0.001193     6.805
   0.63085  0.37817  0.09865  1.16805  0.019350  0.003132 -0.001260     6.179
   0.64639  0.36263  0.09885  1.17134  0.017220  0.003070 -0.001333     5.608
   0.66187  0.34716  0.09884  1.17549  0.015281  0.002999 -0.001356     5.095
   0.67728  0.33174  0.09863  1.18065  0.013533  0.002917 -0.001250     4.639
   0.69264  0.31639  0.09821  1.18689  0.011977  0.002826 -0.000884     4.238
   0.70795  0.30109  0.09757  1.19410  0.010610  0.002727 -0.000176     3.891
   0.72321  0.28586  0.09672  1.20245  0.009426  0.002618  0.000883     3.600
   0.73841  0.27069  0.09564  1.21185  0.008412  0.002501  0.002244     3.363
   0.75355  0.25561  0.09433  1.22193  0.007555  0.002379  0.003821     3.175
   0.76863  0.24061  0.09280  1.23219  0.006832  0.002257  0.005546     3.027
   0.78363  0.22571  0.09103  1.24213  0.006223  0.002138  0.007341     2.911
   0.79855  0.21092  0.08902  1.25135  0.005706  0.002024  0.009166     2.820
   0.81339  0.19626  0.08678  1.25955  0.005262  0.001915  0.010990     2.748
   0.82811  0.18175  0.08429  1.26654  0.004876  0.001811  0.012795     2.692
   0.84271  0.16741  0.08155  1.27221  0.004533  0.001713  0.014601     2.647
   0.85717  0.15327  0.07856  1.27644  0.004225  0.001618  0.016382     2.611
   0.87144  0.13937  0.07533  1.27926  0.003941  0.001527  0.018209     2.581
   0.88548  0.12576  0.07185  1.28055  0.003678  0.001438  0.020063     2.558
   0.89921  0.11254  0.06815  1.28028  0.003430  0.001351  0.021971     2.538
   0.91255  0.09978  0.06426  1.27848  0.003191  0.001266  0.024045     2.520
   0.92536  0.08762  0.06020  1.27489  0.002966  0.001183  0.026161     2.507
   0.93750  0.07622  0.05606  1.26971  0.002748  0.001102  0.028516     2.494
   0.94879  0.06572  0.05190  1.26277  0.002541  0.001023  0.031036     2.483
   0.95911  0.05625  0.04782  1.25414  0.002344  0.000948  0.033765     2.473
   0.96837  0.04786  0.04389  1.24388  0.002159  0.000877  0.036785     2.462
   0.97657  0.04055  0.04017  1.23186  0.001988  0.000811  0.039959     2.453
   0.98379  0.03423  0.03668  1.21818  0.001829  0.000749  0.043413     2.442
   0.99012  0.02879  0.03343  1.20266  0.001684  0.000692  0.047056     2.432
   0.99570  0.02411  0.03040  1.18515  0.001549  0.000640  0.051012     2.420
   1.00063  0.02008  0.02756  1.16521  0.001424  0.000591  0.055221     2.408
   1.00502  0.01660  0.02489  1.14239  0.001308  0.000546  0.059653     2.396
   1.00896  0.01357  0.02236  1.11612  0.001200  0.000504  0.064363     2.383
   1.01253  0.01095  0.01995  1.08550  0.001099  0.000464  0.069383     2.367
   1.01577  0.00867  0.01764  1.04947  0.001008  0.000428  0.074081     2.355
   1.01874  0.00671  0.01541  1.00720  0.000921  0.000394  0.079076     2.338
   1.02149  0.00502  0.01324  0.95674  0.000842  0.000362  0.083350     2.324
   1.02404  0.00360  0.01113  0.89651  0.000768  0.000333  0.087002     2.306
   1.02642  0.00242  0.00906  0.82435  0.000704  0.000307  0.088484     2.291
   1.02866  0.00148  0.00703  0.73904  0.000647  0.000284  0.087541     2.276
   1.03077  0.00077  0.00504  0.63898  0.000598  0.000264  0.082883     2.263
   1.03277  0.00029  0.00309  0.52303  0.000558  0.000249  0.073832     2.245
   1.03468  0.00004  0.00120  0.39382  0.000534  0.000239  0.058410     2.240
   1.03651  0.00001 -0.00064  0.25709  0.000515  0.000230  0.039768     2.235
   1.03838  0.00020 -0.00249  0.10625  0.000501  0.000225  0.016970     2.230
   1.04030  0.00065 -0.00436 -0.05571  0.000501  0.000225  0.008899     2.230
   1.04230  0.00137 -0.00623 -0.21403  0.000524  0.000234  0.032493     2.235
   1.04439  0.00239 -0.00805 -0.36525  0.000543  0.000243  0.053523     2.236
   1.04657  0.00369 -0.00980 -0.49739  0.000596  0.000263  0.064621     2.266
   1.04888  0.00527 -0.01148 -0.60701  0.000653  0.000288  0.071617     2.270
   1.05132  0.00712 -0.01307 -0.69767  0.000724  0.000316  0.072767     2.292
   1.05393  0.00925 -0.01459 -0.76960  0.000809  0.000350  0.070472     2.313
   1.05675  0.01167 -0.01603 -0.82703  0.000901  0.000387  0.066855     2.330
   1.05979  0.01438 -0.01741 -0.87318  0.001003  0.000427  0.062312     2.348
   1.06312  0.01744 -0.01873 -0.90969  0.001118  0.000472  0.056978     2.371
   1.06679  0.02087 -0.02000 -0.93898  0.001241  0.000520  0.052078     2.388
   1.07086  0.02476 -0.02123 -0.96256  0.001377  0.000572  0.047246     2.407
   1.07542  0.02916 -0.02242 -0.98158  0.001525  0.000629  0.042728     2.425
   1.08058  0.03419 -0.02357 -0.99655  0.001690  0.000691  0.038315     2.445
   1.08647  0.03998 -0.02467 -1.00842  0.001870  0.000759  0.034421     2.462
   1.09325  0.04667 -0.02572 -1.01749  0.002072  0.000835  0.030720     2.482
   1.10108  0.05445 -0.02670 -1.02416  0.002296  0.000918  0.027363     2.500
   1.11013  0.06345 -0.02758 -1.02847  0.002547  0.001010  0.024212     2.521
   1.12048  0.07377 -0.02833 -1.03088  0.002820  0.001111  0.021488     2.539
   1.13215  0.08543 -0.02891 -1.03154  0.003117  0.001218  0.019041     2.559
   1.14504  0.09832 -0.02929 -1.03089  0.003429  0.001331  0.016969     2.576
   1.15896  0.11223 -0.02947 -1.02907  0.003755  0.001447  0.015145     2.595
   1.17368  0.12696 -0.02945 -1.02657  0.004083  0.001564  0.013649     2.610
   1.18901  0.14228 -0.02924 -1.02356  0.004414  0.001681  0.012368     2.626
   1.20480  0.15806 -0.02887 -1.02038  0.004736  0.001796  0.011332     2.637
   1.22092  0.17418 -0.02837 -1.01705  0.005055  0.001908  0.010433     2.649
   1.23731  0.19056 -0.02776 -1.01377  0.005363  0.002018  0.009701     2.658
   1.25391  0.20714 -0.02707 -1.01062  0.005660  0.002124  0.009089     2.665
   1.27067  0.22389 -0.02630 -1.00757  0.005948  0.002227  0.008560     2.671
   1.28758  0.24078 -0.02549 -1.00477  0.006219  0.002326  0.008139     2.673
   1.30460  0.25777 -0.02465 -1.00219  0.006477  0.002422  0.007790     2.674
   1.32169  0.27484 -0.02379 -0.99990  0.006717  0.002514  0.007512     2.672
   1.33881  0.29194 -0.02292 -0.99792  0.006937  0.002601  0.007304     2.667
   1.35590  0.30901 -0.02207 -0.99627  0.007138  0.002683  0.007148     2.660
   1.37294  0.32603 -0.02124 -0.99499  0.007315  0.002761  0.007052     2.650
   1.38994  0.34301 -0.02043 -0.99410  0.007468  0.002833  0.007010     2.636
   1.40689  0.35994 -0.01967 -0.99365  0.007594  0.002899  0.007025     2.620
   1.42382  0.37686 -0.01894 -0.99367  0.007693  0.002959  0.007096     2.600
   1.44075  0.39378 -0.01827 -0.99431  0.007756  0.003012  0.007245     2.575
   1.45775  0.41076 -0.01762 -0.99558  0.007785  0.003057  0.007461     2.546
   1.47481  0.42781 -0.01697 -0.99683  0.007851  0.003104  0.007552     2.529
   1.49192  0.44491 -0.01629 -0.99806  0.007934  0.003152  0.007575     2.517
   1.50907  0.46204 -0.01560 -0.99924  0.008033  0.003200  0.007547     2.510
   1.52625  0.47921 -0.01490 -1.00038  0.008139  0.003248  0.007494     2.506
   1.54344  0.49639 -0.01420 -1.00148  0.008249  0.003296  0.007427     2.503
   1.56064  0.51357 -0.01350 -1.00255  0.008361  0.003343  0.007349     2.501
   1.57783  0.53074 -0.01280 -1.00362  0.008470  0.003390  0.007279     2.499
   1.59499  0.54790 -0.01211 -1.00472  0.008574  0.003434  0.007216     2.496
   1.61214  0.56503 -0.01143 -1.00584  0.008673  0.003478  0.007163     2.494
   1.62928  0.58215 -0.01076 -1.00702  0.008766  0.003520  0.007122     2.490
   1.64639  0.59926 -0.01011 -1.00829  0.008849  0.003560  0.007098     2.486
   1.66350  0.61635 -0.00947 -1.00963  0.008925  0.003598  0.007086     2.480
   1.68058  0.63342 -0.00885 -1.01111  0.008990  0.003634  0.007095     2.474
   1.69766  0.65049 -0.00825 -1.01271  0.009045  0.003667  0.007118     2.466
   1.71473  0.66755 -0.00768 -1.01446  0.009089  0.003698  0.007160     2.458
   1.73178  0.68459 -0.00712 -1.01638  0.009122  0.003727  0.007221     2.448
   1.74883  0.70164 -0.00659 -1.01847  0.009145  0.003752  0.007297     2.437
   1.76588  0.71867 -0.00608 -1.02080  0.009154  0.003774  0.007397     2.425
   1.78292  0.73570 -0.00560 -1.02334  0.009152  0.003794  0.007514     2.412
   1.79995  0.75273 -0.00514 -1.02614  0.009137  0.003809  0.007654     2.398
   1.81698  0.76976 -0.00471 -1.02921  0.009110  0.003822  0.007814     2.384
   1.83401  0.78678 -0.00431 -1.03260  0.009068  0.003830  0.008001     2.368
   1.85104  0.80381 -0.00393 -1.03633  0.009013  0.003834  0.008215     2.351
   1.86807  0.82084 -0.00357 -1.04047  0.008941  0.003834  0.008462     2.332
   1.88510  0.83786 -0.00324 -1.04505  0.008855  0.003828  0.008741     2.313
   1.90213  0.85489 -0.00294 -1.05018  0.008747  0.003817  0.009071     2.292
   1.91914  0.87190 -0.00266 -1.05587  0.008624  0.003800  0.009441     2.270
   1.93613  0.88889 -0.00241 -1.06228  0.008478  0.003775  0.009876     2.246
   1.95305  0.90581 -0.00218 -1.06955  0.008305  0.003742  0.010395     2.219
   1.96983  0.92258 -0.00197 -1.07783  0.008104  0.003699  0.011012     2.191
   1.98627  0.93902 -0.00179 -1.08731  0.007869  0.003645  0.011758     2.159
   2.00209  0.95483 -0.00163 -1.09817  0.007598  0.003577  0.012671     2.124
   2.01678  0.96953 -0.00150 -1.11042  0.007292  0.003496  0.013779     2.086
   2.02984  0.98258 -0.00139 -1.12418  0.006946  0.003399  0.015157     2.043
   2.04093  0.99368 -0.00131 -1.13903  0.006582  0.003292  0.016778     1.999
   2.04725  1.00000 -0.00126 -1.15451  0.006138  0.003162  0.019059     1.941
   2.04725  1.00010 -0.00001  1.15451  0.160535  0.006569  0.000000    24.439
   2.05356  1.00636 -0.00081  1.15166  0.160349  0.006999  0.000000    22.911
   2.06096  1.01372 -0.00160  1.14804  0.159880  0.007549  0.000000    21.178
   2.06964  1.02235 -0.00244  1.14374  0.159206  0.008207  0.000000    19.399
   2.07981  1.03249 -0.00334  1.13864  0.158276  0.008995  0.000000    17.596
   2.09174  1.04438 -0.00431  1.13254  0.157026  0.009945  0.000000    15.789
   2.10574  1.05833 -0.00535  1.12530  0.155363  0.011083  0.000000    14.018
   2.12215  1.07471 -0.00644  1.11671  0.153172  0.012449  0.000000    12.304
   2.14139  1.09391 -0.00759  1.10648  0.150312  0.014094  0.000000    10.665
   2.16396  1.11645 -0.00877  1.09426  0.146604  0.016083  0.000000     9.115
   2.19042  1.14289 -0.00996  1.07958  0.141834  0.018506  0.000000     7.664
   2.22145  1.17390 -0.01114  1.06200  0.135734  0.021451  0.000000     6.328
   2.25784  1.21027 -0.01226  1.04020  0.128076  0.025171  0.000000     5.088
   2.30052  1.25294 -0.01325  1.01185  0.118718  0.030134  0.000000     3.940
   2.35057  1.30298 -0.01406  0.98218  0.107314  0.035475  0.000000     3.025
   2.40926  1.36167 -0.01457  0.95931  0.094187  0.039630  0.000000     2.377
   2.47809  1.43049 -0.01466  0.94619  0.080648  0.041959  0.000000     1.922
   2.55880  1.51120 -0.01420  0.94363  0.068303  0.042391  0.000000     1.611
   2.65345  1.60585 -0.01299  0.94899  0.058330  0.041556  0.000000     1.404
   2.76445  1.71682 -0.01080  0.95803  0.050988  0.040264  0.000000     1.266
   2.89461  1.84694 -0.00738  0.96748  0.045851  0.039011  0.000000     1.175
   3.04725  1.99950 -0.00238  0.98434  0.041084  0.036949  0.000000     1.112
