#    s        x        y     Ue/Vinf    Dstar     Theta      Cf       H
   0.00000  1.00000  0.00126  1.00998  0.065800  0.016864 -0.000009     3.902
   0.00630  0.99392  0.00292  1.01217  0.064864  0.016650 -0.000009     3.896
   0.01727  0.98333  0.00577  1.01609  0.063197  0.016275 -0.000007     3.883
   0.03004  0.97098  0.00904  1.02088  0.061288  0.015831 -0.000006     3.871
   0.04430  0.95718  0.01262  1.02655  0.059223  0.015325 -0.000005     3.865
   0.05958  0.94237  0.01638  1.03305  0.057105  0.014768 -0.000006     3.867
   0.07546  0.92696  0.02021  1.04031  0.055014  0.014173 -0.000008     3.882
   0.09164  0.91123  0.02403  1.04828  0.053002  0.013549 -0.000014     3.912
   0.10799  0.89533  0.02780  1.05697  0.051096  0.012901 -0.000023     3.961
   0.12441  0.87933  0.03149  1.06639  0.049307  0.012233 -0.000035     4.031
   0.14087  0.86327  0.03511  1.07658  0.047644  0.011546 -0.000052     4.126
   0.15734  0.84718  0.03864  1.08759  0.046101  0.010842 -0.000072     4.252
   0.17383  0.83106  0.04208  1.09946  0.044679  0.010122 -0.000096     4.414
   0.19032  0.81492  0.04544  1.11225  0.043369  0.009388 -0.000121     4.620
   0.20680  0.79875  0.04870  1.12605  0.042166  0.008639 -0.000146     4.881
   0.22329  0.78258  0.05188  1.14093  0.041055  0.007877 -0.000168     5.212
   0.23978  0.76638  0.05496  1.15706  0.040024  0.007098 -0.000190     5.639
   0.25626  0.75017  0.05796  1.17461  0.039058  0.006301 -0.000210     6.198
   0.27274  0.73395  0.06086  1.19393  0.038132  0.005480 -0.000235     6.959
   0.28921  0.71772  0.06368  1.21568  0.037207  0.004617 -0.000273     8.059
   0.30568  0.70148  0.06640  1.24037  0.036242  0.003708 -0.000335     9.773
   0.32214  0.68523  0.06902  1.26972  0.035142  0.002715 -0.000355    12.943
   0.33859  0.66898  0.07155  1.29338  0.034035  0.001990 -0.000620    17.101
   0.35503  0.65272  0.07398  1.29392  0.033177  0.001978 -0.000625    16.776
   0.37146  0.63645  0.07632  1.29440  0.032132  0.001967 -0.000630    16.336
   0.38788  0.62019  0.07855  1.29486  0.030955  0.001958 -0.000634    15.812
   0.40429  0.60392  0.08069  1.29530  0.029680  0.001949 -0.000639    15.227
   0.42068  0.58766  0.08272  1.29573  0.028326  0.001941 -0.000643    14.592
   0.43705  0.57140  0.08465  1.29618  0.026914  0.001933 -0.000648    13.921
   0.45341  0.55514  0.08647  1.29666  0.025456  0.001926 -0.000654    13.220
   0.46975  0.53889  0.08818  1.29717  0.023965  0.001917 -0.000660    12.498
   0.48606  0.52265  0.08978  1.29775  0.022450  0.001909 -0.000667    11.762
   0.50236  0.50642  0.09127  1.29840  0.020921  0.001899 -0.000675    11.017
   0.51863  0.49021  0.09264  1.29917  0.019390  0.001888 -0.000685    10.269
   0.53487  0.47402  0.09390  1.30009  0.017864  0.001876 -0.000697     9.524
   0.55108  0.45785  0.09503  1.30120  0.016349  0.001861 -0.000713     8.784
   0.56725  0.44172  0.09603  1.30258  0.014858  0.001844 -0.000733     8.057
   0.58335  0.42564  0.09690  1.30430  0.013399  0.001824 -0.000759     7.345
   0.59935  0.40965  0.09765  1.30648  0.011983  0.001801 -0.000794     6.655
   0.61519  0.39382  0.09824  1.30926  0.010618  0.001773 -0.000842     5.989
   0.63085  0.37817  0.09865  1.31286  0.009378  0.001740 -0.000880     5.391
   0.64639  0.36263  0.09885  1.31747  0.008269  0.001701 -0.000862     4.862
   0.66187  0.34716  0.09884  1.32323  0.007290  0.001656 -0.000696     4.403
   0.67728  0.33174  0.09863  1.33005  0.006441  0.001606 -0.000305     4.011
   0.69264  0.31639  0.09821  1.33797  0.005716  0.001551  0.000327     3.685
   0.70795  0.30109  0.09757  1.34703  0.005109  0.001491  0.001151     3.426
   0.72321  0.28586  0.09672  1.35685  0.004608  0.001428  0.002091     3.227
   0.73841  0.27069  0.09564  1.36689  0.004194  0.001364  0.003086     3.074
   0.75355  0.25561  0.09433  1.37667  0.003852  0.001302  0.004087     2.957
   0.76863  0.24061  0.09280  1.38585  0.003564  0.001243  0.005071     2.868
   0.78363  0.22571  0.09103  1.39420  0.003320  0.001186  0.006014     2.799
   0.79855  0.21092  0.08902  1.40165  0.003107  0.001132  0.006930     2.745
   0.81339  0.19626  0.08678  1.40820  0.002918  0.001080  0.007827     2.702
   0.82811  0.18175  0.08429  1.41376  0.002748  0.001030  0.008692     2.668
   0.84271  0.16741  0.08155  1.41846  0.002591  0.000981  0.009560     2.641
   0.85717  0.15327  0.07856  1.42227  0.002444  0.000933  0.010431     2.618
   0.87144  0.13937  0.07533  1.42523  0.002305  0.000887  0.011315     2.600
   0.88548  0.12576  0.07185  1.42738  0.002172  0.000840  0.012233     2.586
   0.89921  0.11254  0.06815  1.42873  0.002043  0.000794  0.013195     2.574
   0.91255  0.09978  0.06426  1.42936  0.001916  0.000747  0.014242     2.563
   0.92536  0.08762  0.06020  1.42917  0.001792  0.000701  0.015348     2.556
   0.93750  0.07622  0.05606  1.42831  0.001671  0.000656  0.016578     2.549
   0.94879  0.06572  0.05190  1.42677  0.001553  0.000611  0.017953     2.542
   0.95911  0.05625  0.04782  1.42448  0.001440  0.000568  0.019457     2.536
   0.96837  0.04786  0.04389  1.42151  0.001332  0.000527  0.021148     2.529
   0.97657  0.04055  0.04017  1.41776  0.001230  0.000488  0.023038     2.521
   0.98379  0.03423  0.03668  1.41309  0.001135  0.000452  0.025114     2.513
   0.99012  0.02879  0.03343  1.40738  0.001046  0.000418  0.027414     2.504
   0.99570  0.02411  0.03040  1.40043  0.000962  0.000386  0.030052     2.491
   1.00063  0.02008  0.02756  1.39170  0.000884  0.000357  0.032894     2.479
   1.00502  0.01660  0.02489  1.38098  0.000811  0.000329  0.036165     2.464
   1.00896  0.01357  0.02236  1.36748  0.000743  0.000303  0.039730     2.448
   1.01253  0.01095  0.01995  1.35059  0.000680  0.000279  0.043621     2.432
   1.01577  0.00867  0.01764  1.32948  0.000619  0.000257  0.048055     2.413
   1.01874  0.00671  0.01541  1.30256  0.000564  0.000236  0.052823     2.392
   1.02149  0.00502  0.01324  1.26841  0.000513  0.000216  0.057531     2.374
   1.02404  0.00360  0.01113  1.22550  0.000465  0.000198  0.062791     2.350
   1.02642  0.00242  0.00906  1.17068  0.000423  0.000182  0.067263     2.330
   1.02866  0.00148  0.00703  1.10215  0.000385  0.000167  0.071008     2.307
   1.03077  0.00077  0.00504  1.01702  0.000353  0.000155  0.072937     2.285
   1.03277  0.00029  0.00309  0.91489  0.000329  0.000145  0.071417     2.271
   1.03468  0.00004  0.00120  0.79612  0.000309  0.000137  0.067679     2.247
   1.03651  0.00001 -0.00064  0.66421  0.000298  0.000132  0.058437     2.249
   1.03838  0.00020 -0.00249  0.51568  0.000286  0.000129  0.048111     2.227
   1.04030  0.00065 -0.00436  0.35136  0.000286  0.000128  0.032518     2.237
   1.04230  0.00137 -0.00623  0.17868  0.000282  0.000127  0.016897     2.227
   1.04439  0.00239 -0.00805  0.01042  0.000319  0.000143  0.000870     2.230
   1.04657  0.00369 -0.00980 -0.14025  0.000319  0.000143  0.011716     2.230
   1.04888  0.00527 -0.01148 -0.27566  0.000357  0.000158  0.020083     2.258
   1.05132  0.00712 -0.01307 -0.38796  0.000393  0.000174  0.025741     2.254
   1.05393  0.00925 -0.01459 -0.48251  0.000437  0.000192  0.028254     2.276
   1.05675  0.01167 -0.01603 -0.56073  0.000484  0.000212  0.029352     2.286
   1.05979  0.01438 -0.01741 -0.62544  0.000538  0.000234  0.028900     2.305
   1.06312  0.01744 -0.01873 -0.67949  0.000596  0.000257  0.028033     2.317
   1.06679  0.02087 -0.02000 -0.72463  0.000662  0.000283  0.026476     2.335
   1.07086  0.02476 -0.02123 -0.76281  0.000732  0.000312  0.024885     2.348
   1.07542  0.02916 -0.02242 -0.79530  0.000809  0.000342  0.023110     2.363
   1.08058  0.03419 -0.02357 -0.82264  0.000897  0.000377  0.021197     2.381
   1.08647  0.03998 -0.02467 -0.84629  0.000990  0.000414  0.019524     2.393
   1.09325  0.04667 -0.02572 -0.86622  0.001097  0.000455  0.017693     2.412
   1.10108  0.05445 -0.02670 -0.88284  0.001217  0.000501  0.015988     2.429
   1.11013  0.06345 -0.02758 -0.89663  0.001348  0.000552  0.014419     2.444
   1.12048  0.07377 -0.02833 -0.90752  0.001496  0.000607  0.012908     2.463
   1.13215  0.08543 -0.02891 -0.91581  0.001655  0.000667  0.011560     2.480
   1.14504  0.09832 -0.02929 -0.92188  0.001823  0.000730  0.010384     2.496
   1.15896  0.11223 -0.02947 -0.92590  0.001999  0.000795  0.009332     2.514
   1.17368  0.12696 -0.02945 -0.92837  0.002179  0.000861  0.008443     2.529
   1.18901  0.14228 -0.02924 -0.92957  0.002361  0.000928  0.007669     2.545
   1.20480  0.15806 -0.02887 -0.92994  0.002540  0.000993  0.007031     2.558
   1.22092  0.17418 -0.02837 -0.92964  0.002718  0.001057  0.006473     2.571
   1.23731  0.19056 -0.02776 -0.92893  0.002892  0.001120  0.006007     2.581
   1.25391  0.20714 -0.02707 -0.92793  0.003062  0.001182  0.005606     2.591
   1.27067  0.22389 -0.02630 -0.92679  0.003227  0.001242  0.005267     2.599
   1.28758  0.24078 -0.02549 -0.92556  0.003386  0.001300  0.004976     2.605
   1.30460  0.25777 -0.02465 -0.92436  0.003538  0.001356  0.004736     2.609
   1.32169  0.27484 -0.02379 -0.92324  0.003682  0.001410  0.004535     2.611
   1.33881  0.29194 -0.02292 -0.92232  0.003814  0.001462  0.004383     2.609
   1.35590  0.30901 -0.02207 -0.92153  0.003938  0.001511  0.004253     2.606
   1.37294  0.32603 -0.02124 -0.92102  0.004049  0.001557  0.004165     2.600
   1.38994  0.34301 -0.02043 -0.92082  0.004145  0.001600  0.004112     2.590
   1.40689  0.35994 -0.01967 -0.92100  0.004226  0.001640  0.004096     2.577
   1.42382  0.37686 -0.01894 -0.92164  0.004289  0.001676  0.004118     2.560
   1.44075  0.39378 -0.01827 -0.92290  0.004328  0.001706  0.004194     2.536
   1.45775  0.41076 -0.01762 -0.92492  0.004342  0.001732  0.004324     2.507
   1.47481  0.42781 -0.01697 -0.92662  0.004392  0.001760  0.004338     2.495
   1.49192  0.44491 -0.01629 -0.92809  0.004460  0.001791  0.004297     2.491
   1.50907  0.46204 -0.01560 -0.92931  0.004542  0.001822  0.004219     2.492
   1.52625  0.47921 -0.01490 -0.93035  0.004629  0.001855  0.004129     2.496
   1.54344  0.49639 -0.01420 -0.93124  0.004719  0.001887  0.004034     2.501
   1.56064  0.51357 -0.01350 -0.93196  0.004812  0.001920  0.003935     2.506
   1.57783  0.53074 -0.01280 -0.93264  0.004901  0.001952  0.003848     2.511
   1.59499  0.54790 -0.01211 -0.93326  0.004987  0.001984  0.003769     2.514
   1.61214  0.56503 -0.01143 -0.93384  0.005071  0.002015  0.003698     2.517
   1.62928  0.58215 -0.01076 -0.93441  0.005152  0.002045  0.003635     2.519
   1.64639  0.59926 -0.01011 -0.93502  0.005226  0.002075  0.003585     2.519
   1.66350  0.61635 -0.00947 -0.93563  0.005297  0.002103  0.003540     2.519
   1.68058  0.63342 -0.00885 -0.93633  0.005361  0.002130  0.003511     2.516
   1.69766  0.65049 -0.00825 -0.93707  0.005420  0.002157  0.003486     2.513
   1.71473  0.66755 -0.00768 -0.93791  0.005474  0.002182  0.003471     2.509
   1.73178  0.68459 -0.00712 -0.93883  0.005522  0.002206  0.003465     2.503
   1.74883  0.70164 -0.00659 -0.93984  0.005565  0.002228  0.003465     2.497
   1.76588  0.71867 -0.00608 -0.94100  0.005599  0.002249  0.003477     2.489
   1.78292  0.73570 -0.00560 -0.94226  0.005630  0.002269  0.003493     2.481
   1.79995  0.75273 -0.00514 -0.94368  0.005654  0.002288  0.003519     2.471
   1.81698  0.76976 -0.00471 -0.94521  0.005673  0.002305  0.003550     2.461
   1.83401  0.78678 -0.00431 -0.94694  0.005684  0.002320  0.003592     2.450
   1.85104  0.80381 -0.00393 -0.94883  0.005689  0.002334  0.003639     2.438
   1.86807  0.82084 -0.00357 -0.95095  0.005686  0.002345  0.003700     2.425
   1.88510  0.83786 -0.00324 -0.95326  0.005677  0.002355  0.003768     2.411
   1.90213  0.85489 -0.00294 -0.95589  0.005656  0.002362  0.003853     2.395
   1.91914  0.87190 -0.00266 -0.95876  0.005630  0.002367  0.003947     2.378
   1.93613  0.88889 -0.00241 -0.96197  0.005592  0.002369  0.004058     2.360
   1.95305  0.90581 -0.00218 -0.96563  0.005540  0.002368  0.004194     2.340
   1.96983  0.92258 -0.00197 -0.96977  0.005474  0.002362  0.004356     2.317
   1.98627  0.93902 -0.00179 -0.97449  0.005390  0.002352  0.004553     2.292
   2.00209  0.95483 -0.00163 -0.97990  0.005283  0.002335  0.004799     2.263
   2.01678  0.96953 -0.00150 -0.98599  0.005155  0.002312  0.005097     2.230
   2.02984  0.98258 -0.00139 -0.99295  0.004994  0.002279  0.005482     2.192
   2.04093  0.99368 -0.00131 -1.00050  0.004816  0.002239  0.005933     2.151
   2.04725  1.00000 -0.00126 -1.00998  0.004532  0.002173  0.006724     2.085
   2.04725  1.00010 -0.00001  1.00998  0.072808  0.019037  0.000000     3.825
   2.05356  1.00636 -0.00081  1.00701  0.072164  0.019363  0.000000     3.727
   2.06096  1.01371 -0.00160  1.00218  0.071246  0.019897  0.000000     3.581
   2.06964  1.02235 -0.00246  0.99652  0.070090  0.020526  0.000000     3.415
   2.07981  1.03248 -0.00338  0.99074  0.068626  0.021172  0.000000     3.241
   2.09174  1.04437 -0.00437  0.98472  0.066833  0.021847  0.000000     3.059
   2.10574  1.05832 -0.00544  0.97841  0.064688  0.022555  0.000000     2.868
   2.12215  1.07469 -0.00658  0.97205  0.062161  0.023269  0.000000     2.671
   2.14139  1.09390 -0.00779  0.96596  0.059242  0.023947  0.000000     2.474
   2.16396  1.11643 -0.00905  0.96056  0.055949  0.024542  0.000000     2.280
   2.19042  1.14286 -0.01035  0.95634  0.052340  0.024998  0.000000     2.094
   2.22145  1.17387 -0.01165  0.95375  0.048525  0.025271  0.000000     1.920
   2.25784  1.21024 -0.01294  0.95313  0.044655  0.025335  0.000000     1.763
   2.30052  1.25290 -0.01415  0.95452  0.040904  0.025199  0.000000     1.623
   2.35057  1.30293 -0.01523  0.95767  0.037438  0.024904  0.000000     1.503
   2.40926  1.36162 -0.01609  0.96205  0.034372  0.024515  0.000000     1.402
   2.47809  1.43044 -0.01663  0.96702  0.031759  0.024094  0.000000     1.318
   2.55880  1.51115 -0.01671  0.97203  0.029592  0.023689  0.000000     1.249
   2.65345  1.60580 -0.01619  0.97671  0.027831  0.023326  0.000000     1.193
   2.76445  1.71679 -0.01486  0.98086  0.026422  0.023014  0.000000     1.148
   2.89461  1.84693 -0.01249  0.98443  0.025312  0.022753  0.000000     1.112
   3.04725  1.99953 -0.00880  0.98970  0.024265  0.022380  0.000000     1.084
