#    s        x        y     Ue/Vinf    Dstar     Theta      Cf       H
   0.00000  1.00000  0.00126  1.25921  0.418409  0.030559 -0.000120    13.692
   0.00630  0.99392  0.00292  1.25980  0.415950  0.030334 -0.000121    13.712
   0.01727  0.98333  0.00577  1.26085  0.411660  0.029941 -0.000122    13.749
   0.03004  0.97098  0.00904  1.26208  0.406523  0.029483 -0.000124    13.788
   0.04430  0.95718  0.01262  1.26348  0.400690  0.028971 -0.000127    13.831
   0.05958  0.94237  0.01638  1.26501  0.394357  0.028421 -0.000129    13.876
   0.07546  0.92696  0.02021  1.26664  0.387706  0.027847 -0.000132    13.923
   0.09164  0.91123  0.02403  1.26834  0.380865  0.027259 -0.000135    13.972
   0.10799  0.89533  0.02780  1.27010  0.373911  0.026662 -0.000138    14.024
   0.12441  0.87933  0.03149  1.27191  0.366881  0.026058 -0.000141    14.079
   0.14087  0.86327  0.03511  1.27378  0.359803  0.025450 -0.000145    14.138
   0.15734  0.84718  0.03864  1.27571  0.352690  0.024836 -0.000149    14.201
   0.17383  0.83106  0.04208  1.27769  0.345546  0.024218 -0.000153    14.268
   0.19032  0.81492  0.04544  1.27974  0.338381  0.023595 -0.000157    14.341
   0.20680  0.79875  0.04870  1.28185  0.331198  0.022966 -0.000162    14.421
   0.22329  0.78258  0.05188  1.28404  0.324000  0.022332 -0.000166    14.508
   0.23978  0.76638  0.05496  1.28630  0.316785  0.021692 -0.000171    14.604
   0.25626  0.75017  0.05796  1.28864  0.309564  0.021045 -0.000177    14.710
   0.27274  0.73395  0.06086  1.29107  0.302333  0.020391 -0.000183    14.826
   0.28921  0.71772  0.06368  1.29360  0.295097  0.019730 -0.000189    14.956
   0.30568  0.70148  0.06640  1.29623  0.287856  0.019061 -0.000196    15.102
   0.32214  0.68523  0.06902  1.29896  0.280610  0.018383 -0.000204    15.265
   0.33859  0.66898  0.07155  1.30182  0.273363  0.017696 -0.000212    15.448
   0.35503  0.65272  0.07398  1.30482  0.266118  0.016997 -0.000221    15.656
   0.37146  0.63645  0.07632  1.30796  0.258870  0.016288 -0.000231    15.894
   0.38788  0.62019  0.07855  1.31126  0.251624  0.015565 -0.000242    16.166
   0.40429  0.60392  0.08069  1.31478  0.244374  0.014821 -0.000255    16.489
   0.42068  0.58766  0.08272  1.31853  0.237121  0.014054 -0.000269    16.872
   0.43705  0.57140  0.08465  1.32251  0.229872  0.013268 -0.000285    17.326
   0.45341  0.55514  0.08647  1.32677  0.222619  0.012460 -0.000304    17.867
   0.46975  0.53889  0.08818  1.33133  0.215371  0.011627 -0.000327    18.524
   0.48606  0.52265  0.08978  1.33625  0.208116  0.010764 -0.000354    19.335
   0.50236  0.50642  0.09127  1.34162  0.200856  0.009863 -0.000387    20.364
   0.51863  0.49021  0.09264  1.34752  0.193580  0.008917 -0.000399    21.709
   0.53487  0.47402  0.09390  1.35410  0.186277  0.007910 -0.000403    23.549
   0.55108  0.45785  0.09503  1.36156  0.178933  0.006826 -0.000408    26.215
   0.56725  0.44172  0.09603  1.37030  0.171511  0.005622 -0.000413    30.507
   0.58335  0.42564  0.09690  1.38130  0.163918  0.004190 -0.000420    39.123
   0.59935  0.40965  0.09765  1.39998  0.155593  0.001693 -0.000431    91.887
   0.61519  0.39382  0.09824  1.40065  0.149197  0.001627 -0.002382    91.678
   0.63085  0.37817  0.09865  1.40094  0.142847  0.001607 -0.002413    88.908
   0.64639  0.36263  0.09885  1.40123  0.136517  0.001587 -0.002445    86.045
   0.66187  0.34716  0.09884  1.40153  0.130208  0.001567 -0.002477    83.099
   0.67728  0.33174  0.09863  1.40184  0.123934  0.001548 -0.002509    80.086
   0.69264  0.31639  0.09821  1.40217  0.117700  0.001528 -0.002542    77.010
   0.70795  0.30109  0.09757  1.40252  0.111508  0.001509 -0.002575    73.873
   0.72321  0.28586  0.09672  1.40288  0.105375  0.001491 -0.002609    70.692
   0.73841  0.27069  0.09564  1.40326  0.099300  0.001472 -0.002644    67.461
   0.75355  0.25561  0.09433  1.40367  0.093295  0.001453 -0.002680    64.194
   0.76863  0.24061  0.09280  1.40411  0.087361  0.001435 -0.002717    60.887
   0.78363  0.22571  0.09103  1.40457  0.081509  0.001416 -0.002755    57.551
   0.79855  0.21092  0.08902  1.40507  0.075744  0.001398 -0.002794    54.189
   0.81339  0.19626  0.08678  1.40561  0.070070  0.001379 -0.002835    50.803
   0.82811  0.18175  0.08429  1.40620  0.064499  0.001361 -0.002878    47.404
   0.84271  0.16741  0.08155  1.40684  0.059035  0.001342 -0.002922    43.993
   0.85717  0.15327  0.07856  1.40755  0.053695  0.001323 -0.002969    40.585
   0.87144  0.13937  0.07533  1.40834  0.048485  0.001304 -0.003019    37.186
   0.88548  0.12576  0.07185  1.40922  0.043428  0.001284 -0.003073    33.815
   0.89921  0.11254  0.06815  1.41021  0.038549  0.001264 -0.003131    30.492
   0.91255  0.09978  0.06426  1.41136  0.033877  0.001243 -0.003195    27.244
   0.92536  0.08762  0.06020  1.41269  0.029462  0.001222 -0.003266    24.117
   0.93750  0.07622  0.05606  1.41425  0.025344  0.001199 -0.003348    21.143
   0.94879  0.06572  0.05190  1.41613  0.021586  0.001174 -0.003443    18.387
   0.95911  0.05625  0.04782  1.41841  0.018220  0.001147 -0.003556    15.881
   0.96837  0.04786  0.04389  1.42122  0.015268  0.001118 -0.003693    13.656
   0.97657  0.04055  0.04017  1.42472  0.012721  0.001086 -0.003862    11.715
   0.98379  0.03423  0.03668  1.42915  0.010551  0.001050 -0.004077    10.046
   0.99012  0.02879  0.03343  1.43478  0.008715  0.001011 -0.004357     8.622
   0.99570  0.02411  0.03040  1.44198  0.007168  0.000967 -0.004736     7.410
   1.00063  0.02008  0.02756  1.45122  0.005874  0.000920 -0.005262     6.388
   1.00502  0.01660  0.02489  1.46315  0.004791  0.000867 -0.005905     5.524
   1.00896  0.01357  0.02236  1.47851  0.003892  0.000810 -0.006006     4.805
   1.01253  0.01095  0.01995  1.49782  0.003155  0.000748 -0.004055     4.216
   1.01577  0.00867  0.01764  1.52091  0.002553  0.000684  0.001655     3.732
   1.01874  0.00671  0.01541  1.54780  0.002069  0.000617  0.011953     3.353
   1.02149  0.00502  0.01324  1.57691  0.001686  0.000550  0.026910     3.067
   1.02404  0.00360  0.01113  1.60507  0.001386  0.000486  0.046359     2.851
   1.02642  0.00242  0.00906  1.62814  0.001152  0.000429  0.070023     2.687
   1.02866  0.00148  0.00703  1.64125  0.000968  0.000379  0.098073     2.554
   1.03077  0.00077  0.00504  1.63817  0.000834  0.000338  0.124827     2.467
   1.03277  0.00029  0.00309  1.61659  0.000731  0.000305  0.151164     2.396
   1.03468  0.00004  0.00120  1.57297  0.000654  0.000279  0.172591     2.346
   1.03651  0.00001 -0.00064  1.50697  0.000597  0.000259  0.188201     2.305
   1.03838  0.00020 -0.00249  1.41275  0.000554  0.000244  0.196843     2.268
   1.04030  0.00065 -0.00436  1.28835  0.000530  0.000236  0.191388     2.246
   1.04230  0.00137 -0.00623  1.13834  0.000517  0.000233  0.177968     2.217
   1.04439  0.00239 -0.00805  0.96943  0.000527  0.000239  0.149897     2.208
   1.04657  0.00369 -0.00980  0.79862  0.000550  0.000250  0.119033     2.202
   1.04888  0.00527 -0.01148  0.63401  0.000585  0.000266  0.088970     2.200
   1.05132  0.00712 -0.01307  0.48181  0.000631  0.000286  0.062484     2.204
   1.05393  0.00925 -0.01459  0.34401  0.000684  0.000310  0.041048     2.206
   1.05675  0.01167 -0.01603  0.22109  0.000749  0.000338  0.023869     2.217
   1.05979  0.01438 -0.01741  0.11195  0.000820  0.000369  0.011026     2.219
   1.06312  0.01744 -0.01873  0.01785  0.000948  0.000425  0.001508     2.230
   1.06679  0.02087 -0.02000 -0.06817  0.000948  0.000425  0.005752     2.230
   1.07086  0.02476 -0.02123 -0.14676  0.001089  0.000481  0.010466     2.262
   1.07542  0.02916 -0.02242 -0.21639  0.001181  0.000527  0.014504     2.241
   1.08058  0.03419 -0.02357 -0.28049  0.001306  0.000575  0.016541     2.271
   1.08647  0.03998 -0.02467 -0.33872  0.001426  0.000629  0.018330     2.269
   1.09325  0.04667 -0.02572 -0.39293  0.001568  0.000687  0.019077     2.283
   1.10108  0.05445 -0.02670 -0.44278  0.001722  0.000751  0.019426     2.292
   1.11013  0.06345 -0.02758 -0.48834  0.001898  0.000824  0.019218     2.304
   1.12048  0.07377 -0.02833 -0.53004  0.002081  0.000901  0.018903     2.311
   1.13215  0.08543 -0.02891 -0.56710  0.002290  0.000985  0.018134     2.325
   1.14504  0.09832 -0.02929 -0.59989  0.002499  0.001072  0.017467     2.331
   1.15896  0.11223 -0.02947 -0.62835  0.002722  0.001162  0.016626     2.342
   1.17368  0.12696 -0.02945 -0.65301  0.002940  0.001252  0.015889     2.349
   1.18901  0.14228 -0.02924 -0.67417  0.003163  0.001342  0.015115     2.358
   1.20480  0.15806 -0.02887 -0.69270  0.003373  0.001428  0.014505     2.362
   1.22092  0.17418 -0.02837 -0.70877  0.003586  0.001514  0.013861     2.369
   1.23731  0.19056 -0.02776 -0.72295  0.003789  0.001596  0.013324     2.374
   1.25391  0.20714 -0.02707 -0.73563  0.003984  0.001676  0.012848     2.377
   1.27067  0.22389 -0.02630 -0.74702  0.004174  0.001753  0.012414     2.381
   1.28758  0.24078 -0.02549 -0.75741  0.004355  0.001828  0.012036     2.383
   1.30460  0.25777 -0.02465 -0.76701  0.004526  0.001899  0.011716     2.384
   1.32169  0.27484 -0.02379 -0.77598  0.004688  0.001966  0.011443     2.384
   1.33881  0.29194 -0.02292 -0.78457  0.004833  0.002029  0.011248     2.382
   1.35590  0.30901 -0.02207 -0.79272  0.004972  0.002089  0.011068     2.380
   1.37294  0.32603 -0.02124 -0.80059  0.005099  0.002146  0.010932     2.377
   1.38994  0.34301 -0.02043 -0.80844  0.005206  0.002196  0.010877     2.371
   1.40689  0.35994 -0.01967 -0.81627  0.005301  0.002242  0.010860     2.364
   1.42382  0.37686 -0.01894 -0.82426  0.005377  0.002283  0.010908     2.355
   1.44075  0.39378 -0.01827 -0.83267  0.005427  0.002317  0.011048     2.342
   1.45775  0.41076 -0.01762 -0.84170  0.005453  0.002343  0.011279     2.327
   1.47481  0.42781 -0.01697 -0.85037  0.005514  0.002374  0.011313     2.323
   1.49192  0.44491 -0.01629 -0.85872  0.005587  0.002405  0.011278     2.323
   1.50907  0.46204 -0.01560 -0.86660  0.005672  0.002439  0.011175     2.326
   1.52625  0.47921 -0.01490 -0.87412  0.005761  0.002473  0.011060     2.330
   1.54344  0.49639 -0.01420 -0.88151  0.005838  0.002505  0.010998     2.330
   1.56064  0.51357 -0.01350 -0.88854  0.005923  0.002539  0.010899     2.333
   1.57783  0.53074 -0.01280 -0.89549  0.005996  0.002570  0.010852     2.333
   1.59499  0.54790 -0.01211 -0.90233  0.006063  0.002600  0.010820     2.332
   1.61214  0.56503 -0.01143 -0.90909  0.006126  0.002628  0.010805     2.331
   1.62928  0.58215 -0.01076 -0.91584  0.006182  0.002655  0.010812     2.328
   1.64639  0.59926 -0.01011 -0.92261  0.006230  0.002680  0.010844     2.325
   1.66350  0.61635 -0.00947 -0.92942  0.006272  0.002702  0.010890     2.321
   1.68058  0.63342 -0.00885 -0.93636  0.006305  0.002723  0.010970     2.316
   1.69766  0.65049 -0.00825 -0.94342  0.006331  0.002740  0.011066     2.310
   1.71473  0.66755 -0.00768 -0.95062  0.006351  0.002756  0.011180     2.304
   1.73178  0.68459 -0.00712 -0.95804  0.006361  0.002769  0.011324     2.297
   1.74883  0.70164 -0.00659 -0.96563  0.006367  0.002780  0.011478     2.290
   1.76588  0.71867 -0.00608 -0.97355  0.006361  0.002788  0.011677     2.281
   1.78292  0.73570 -0.00560 -0.98171  0.006349  0.002793  0.011887     2.273
   1.79995  0.75273 -0.00514 -0.99026  0.006327  0.002795  0.012133     2.264
   1.81698  0.76976 -0.00471 -0.99912  0.006301  0.002795  0.012396     2.255
   1.83401  0.78678 -0.00431 -1.00848  0.006261  0.002790  0.012715     2.244
   1.85104  0.80381 -0.00393 -1.01828  0.006216  0.002783  0.013055     2.234
   1.86807  0.82084 -0.00357 -1.02868  0.006157  0.002771  0.013454     2.222
   1.88510  0.83786 -0.00324 -1.03975  0.006088  0.002755  0.013910     2.209
   1.90213  0.85489 -0.00294 -1.05163  0.006005  0.002735  0.014437     2.196
   1.91914  0.87190 -0.00266 -1.06437  0.005910  0.002709  0.015033     2.181
   1.93613  0.88889 -0.00241 -1.07818  0.005800  0.002678  0.015726     2.166
   1.95305  0.90581 -0.00218 -1.09338  0.005669  0.002639  0.016573     2.148
   1.96983  0.92258 -0.00197 -1.11014  0.005517  0.002593  0.017580     2.128
   1.98627  0.93902 -0.00179 -1.12878  0.005339  0.002536  0.018824     2.105
   2.00209  0.95483 -0.00163 -1.14965  0.005130  0.002468  0.020399     2.078
   2.01678  0.96953 -0.00150 -1.17273  0.004891  0.002389  0.022369     2.048
   2.02984  0.98258 -0.00139 -1.19871  0.004604  0.002292  0.025049     2.009
   2.04093  0.99368 -0.00131 -1.22714  0.004292  0.002184  0.028439     1.966
   2.04725  1.00000 -0.00126 -1.25921  0.003834  0.002035  0.034698     1.884
   2.04725  1.00010 -0.00001  1.25921  0.424719  0.032594  0.000000    13.031
   2.05356  1.00636 -0.00077  1.25814  0.425333  0.033009  0.000000    12.885
   2.06096  1.01373 -0.00144  1.25679  0.425820  0.033538  0.000000    12.697
   2.06964  1.02239 -0.00207  1.25521  0.426298  0.034161  0.000000    12.479
   2.07981  1.03254 -0.00265  1.25334  0.426731  0.034898  0.000000    12.228
   2.09174  1.04446 -0.00315  1.25115  0.427086  0.035770  0.000000    11.940
   2.10574  1.05845 -0.00355  1.24857  0.427315  0.036802  0.000000    11.611
   2.12215  1.07486 -0.00378  1.24553  0.427349  0.038024  0.000000    11.239
   2.14139  1.09410 -0.00378  1.24196  0.427095  0.039476  0.000000    10.819
   2.16396  1.11667 -0.00347  1.23774  0.426426  0.041201  0.000000    10.350
   2.19042  1.14312 -0.00272  1.23277  0.425172  0.043257  0.000000     9.829
   2.22145  1.17412 -0.00140  1.22689  0.423105  0.045712  0.000000     9.256
   2.25784  1.21046  0.00069  1.21992  0.419917  0.048652  0.000000     8.631
   2.30052  1.25302  0.00377  1.21163  0.415200  0.052188  0.000000     7.956
   2.35057  1.30288  0.00814  1.20174  0.408403  0.056460  0.000000     7.234
   2.40926  1.36126  0.01414  1.18984  0.398780  0.061658  0.000000     6.468
   2.47809  1.42961  0.02221  1.17536  0.385313  0.068056  0.000000     5.662
   2.55880  1.50962  0.03287  1.15738  0.366588  0.076094  0.000000     4.818
   2.65345  1.60324  0.04677  1.13383  0.340665  0.086743  0.000000     3.927
   2.76445  1.71279  0.06467  1.10281  0.303970  0.100954  0.000000     3.011
   2.89461  1.84094  0.08747  1.08679  0.248032  0.108069  0.000000     2.295
   3.04725  1.99084  0.11628  1.21740  0.098187  0.069807  0.000000     1.407
