#    s        x        y     Ue/Vinf    Dstar     Theta      Cf       H
   0.00000  1.00000  0.00126  1.02273  0.052498  0.006926 -0.000155     7.580
   0.00630  0.99392  0.00292  1.02782  0.051805  0.006600 -0.000163     7.849
   0.01727  0.98333  0.00577  1.03731  0.050527  0.006014 -0.000177     8.401
   0.03004  0.97098  0.00904  1.04941  0.049057  0.005306 -0.000200     9.246
   0.04430  0.95718  0.01262  1.06457  0.047421  0.004473 -0.000236    10.601
   0.05958  0.94237  0.01638  1.08363  0.045624  0.003503 -0.000258    13.026
   0.07546  0.92696  0.02021  1.10733  0.043622  0.002397 -0.000440    18.199
   0.09164  0.91123  0.02403  1.10751  0.042232  0.002392 -0.000441    17.654
   0.10799  0.89533  0.02780  1.10766  0.040697  0.002389 -0.000443    17.038
   0.12441  0.87933  0.03149  1.10780  0.039073  0.002386 -0.000444    16.377
   0.14087  0.86327  0.03511  1.10794  0.037397  0.002383 -0.000446    15.691
   0.15734  0.84718  0.03864  1.10809  0.035690  0.002381 -0.000448    14.990
   0.17383  0.83106  0.04208  1.10825  0.033966  0.002378 -0.000450    14.283
   0.19032  0.81492  0.04544  1.10844  0.032240  0.002375 -0.000452    13.576
   0.20680  0.79875  0.04870  1.10865  0.030522  0.002371 -0.000455    12.874
   0.22329  0.78258  0.05188  1.10891  0.028816  0.002366 -0.000458    12.179
   0.23978  0.76638  0.05496  1.10921  0.027132  0.002360 -0.000462    11.496
   0.25626  0.75017  0.05796  1.10959  0.025476  0.002353 -0.000467    10.828
   0.27274  0.73395  0.06086  1.11004  0.023856  0.002344 -0.000472    10.178
   0.28921  0.71772  0.06368  1.11059  0.022275  0.002333 -0.000479     9.546
   0.30568  0.70148  0.06640  1.11126  0.020740  0.002321 -0.000487     8.937
   0.32214  0.68523  0.06902  1.11208  0.019254  0.002306 -0.000497     8.350
   0.33859  0.66898  0.07155  1.11308  0.017826  0.002288 -0.000509     7.790
   0.35503  0.65272  0.07398  1.11430  0.016456  0.002268 -0.000523     7.255
   0.37146  0.63645  0.07632  1.11577  0.015151  0.002245 -0.000542     6.749
   0.38788  0.62019  0.07855  1.11756  0.013915  0.002218 -0.000564     6.274
   0.40429  0.60392  0.08069  1.11971  0.012755  0.002188 -0.000589     5.830
   0.42068  0.58766  0.08272  1.12230  0.011669  0.002153 -0.000608     5.419
   0.43705  0.57140  0.08465  1.12539  0.010665  0.002115 -0.000611     5.043
   0.45341  0.55514  0.08647  1.12903  0.009741  0.002072 -0.000576     4.700
   0.46975  0.53889  0.08818  1.13325  0.008900  0.002026 -0.000482     4.393
   0.48606  0.52265  0.08978  1.13801  0.008137  0.001976 -0.000312     4.118
   0.50236  0.50642  0.09127  1.14328  0.007454  0.001923 -0.000061     3.876
   0.51863  0.49021  0.09264  1.14914  0.006844  0.001866  0.000267     3.667
   0.53487  0.47402  0.09390  1.15556  0.006303  0.001807  0.000658     3.489
   0.55108  0.45785  0.09503  1.16243  0.005819  0.001744  0.001110     3.336
   0.56725  0.44172  0.09603  1.16963  0.005386  0.001681  0.001614     3.205
   0.58335  0.42564  0.09690  1.17703  0.004990  0.001616  0.002180     3.088
   0.59935  0.40965  0.09765  1.18453  0.004623  0.001551  0.002827     2.980
   0.61519  0.39382  0.09824  1.19209  0.004265  0.001486  0.003628     2.871
   0.63085  0.37817  0.09865  1.19887  0.003965  0.001424  0.004413     2.785
   0.64639  0.36263  0.09885  1.20465  0.003714  0.001366  0.005153     2.719
   0.66187  0.34716  0.09884  1.20942  0.003497  0.001312  0.005865     2.665
   0.67728  0.33174  0.09863  1.21311  0.003308  0.001261  0.006538     2.623
   0.69264  0.31639  0.09821  1.21577  0.003139  0.001213  0.007197     2.587
   0.70795  0.30109  0.09757  1.21731  0.002986  0.001167  0.007826     2.558
   0.72321  0.28586  0.09672  1.21778  0.002846  0.001124  0.008444     2.533
   0.73841  0.27069  0.09564  1.21716  0.002716  0.001081  0.009053     2.512
   0.75355  0.25561  0.09433  1.21539  0.002594  0.001040  0.009651     2.493
   0.76863  0.24061  0.09280  1.21249  0.002478  0.001000  0.010262     2.476
   0.78363  0.22571  0.09103  1.20831  0.002368  0.000962  0.010858     2.463
   0.79855  0.21092  0.08902  1.20287  0.002262  0.000923  0.011466     2.450
   0.81339  0.19626  0.08678  1.19606  0.002159  0.000885  0.012085     2.438
   0.82811  0.18175  0.08429  1.18778  0.002058  0.000848  0.012723     2.428
   0.84271  0.16741  0.08155  1.17788  0.001960  0.000810  0.013374     2.419
   0.85717  0.15327  0.07856  1.16623  0.001863  0.000773  0.014046     2.411
   0.87144  0.13937  0.07533  1.15268  0.001766  0.000735  0.014769     2.402
   0.88548  0.12576  0.07185  1.13693  0.001670  0.000698  0.015530     2.394
   0.89921  0.11254  0.06815  1.11871  0.001576  0.000660  0.016279     2.389
   0.91255  0.09978  0.06426  1.09807  0.001479  0.000621  0.017165     2.381
   0.92536  0.08762  0.06020  1.07439  0.001385  0.000583  0.018038     2.375
   0.93750  0.07622  0.05606  1.04782  0.001291  0.000545  0.019006     2.368
   0.94879  0.06572  0.05190  1.01815  0.001200  0.000508  0.020008     2.361
   0.95911  0.05625  0.04782  0.98554  0.001111  0.000472  0.021048     2.354
   0.96837  0.04786  0.04389  0.95011  0.001028  0.000438  0.022112     2.346
   0.97657  0.04055  0.04017  0.91199  0.000949  0.000406  0.023126     2.339
   0.98379  0.03423  0.03668  0.87128  0.000876  0.000376  0.024147     2.330
   0.99012  0.02879  0.03343  0.82771  0.000809  0.000348  0.025005     2.323
   0.99570  0.02411  0.03040  0.78125  0.000747  0.000323  0.025761     2.315
   1.00063  0.02008  0.02756  0.73127  0.000689  0.000299  0.026355     2.306
   1.00502  0.01660  0.02489  0.67694  0.000636  0.000277  0.026710     2.296
   1.00896  0.01357  0.02236  0.61768  0.000587  0.000256  0.026525     2.290
   1.01253  0.01095  0.01995  0.55253  0.000539  0.000237  0.026144     2.277
   1.01577  0.00867  0.01764  0.47916  0.000498  0.000220  0.024847     2.265
   1.01874  0.00671  0.01541  0.39854  0.000461  0.000203  0.022267     2.267
   1.02149  0.00502  0.01324  0.30764  0.000421  0.000188  0.019269     2.242
   1.02404  0.00360  0.01113  0.20519  0.000391  0.000174  0.013679     2.253
   1.02642  0.00242  0.00906  0.08837  0.000351  0.000157  0.006719     2.230
   1.02866  0.00148  0.00703 -0.03947  0.000351  0.000157  0.003001     2.230
   1.03077  0.00077  0.00504 -0.18069  0.000311  0.000140  0.015670     2.218
   1.03277  0.00029  0.00309 -0.33396  0.000301  0.000135  0.029524     2.231
   1.03468  0.00004  0.00120 -0.49292  0.000288  0.000130  0.046208     2.214
   1.03651  0.00001 -0.00064 -0.65263  0.000285  0.000128  0.061009     2.229
   1.03838  0.00020 -0.00249 -0.81704  0.000282  0.000127  0.077564     2.224
   1.04030  0.00065 -0.00436 -0.97636  0.000291  0.000130  0.087722     2.249
   1.04230  0.00137 -0.00623 -1.11874  0.000307  0.000136  0.093999     2.265
   1.04439  0.00239 -0.00805 -1.23509  0.000336  0.000146  0.091922     2.299
   1.04657  0.00369 -0.00980 -1.32195  0.000375  0.000161  0.085424     2.334
   1.04888  0.00527 -0.01148 -1.38046  0.000426  0.000179  0.074886     2.381
   1.05132  0.00712 -0.01307 -1.41641  0.000488  0.000201  0.064183     2.426
   1.05393  0.00925 -0.01459 -1.43570  0.000559  0.000226  0.053896     2.475
   1.05675  0.01167 -0.01603 -1.44326  0.000641  0.000254  0.044852     2.525
   1.05979  0.01438 -0.01741 -1.44196  0.000735  0.000285  0.036661     2.582
   1.06312  0.01744 -0.01873 -1.43491  0.000839  0.000318  0.029997     2.637
   1.06679  0.02087 -0.02000 -1.42348  0.000958  0.000355  0.024183     2.699
   1.07086  0.02476 -0.02123 -1.40924  0.001090  0.000395  0.019479     2.761
   1.07542  0.02916 -0.02242 -1.39263  0.001242  0.000439  0.015376     2.831
   1.08058  0.03419 -0.02357 -1.37425  0.001417  0.000487  0.011909     2.910
   1.08647  0.03998 -0.02467 -1.35452  0.001619  0.000540  0.008984     2.998
   1.09325  0.04667 -0.02572 -1.33372  0.001857  0.000599  0.006497     3.100
   1.10108  0.05445 -0.02670 -1.31210  0.002144  0.000664  0.004332     3.228
   1.11013  0.06345 -0.02758 -1.29021  0.002492  0.000736  0.002517     3.388
   1.12048  0.07377 -0.02833 -1.26881  0.002912  0.000812  0.001076     3.585
   1.13215  0.08543 -0.02891 -1.24871  0.003421  0.000892 -0.000021     3.837
   1.14504  0.09832 -0.02929 -1.23064  0.004022  0.000971 -0.000731     4.142
   1.15896  0.11223 -0.02947 -1.21491  0.004714  0.001049 -0.001093     4.495
   1.17368  0.12696 -0.02945 -1.20171  0.005487  0.001122 -0.001199     4.889
   1.18901  0.14228 -0.02924 -1.19087  0.006317  0.001190 -0.001166     5.308
   1.20480  0.15806 -0.02887 -1.18199  0.007184  0.001253 -0.001092     5.736
   1.22092  0.17418 -0.02837 -1.17465  0.008066  0.001310 -0.001011     6.157
   1.23731  0.19056 -0.02776 -1.16846  0.008935  0.001363 -0.000944     6.556
   1.25391  0.20714 -0.02707 -1.16314  0.009774  0.001413 -0.000890     6.918
   1.27067  0.22389 -0.02630 -1.15846  0.010562  0.001460 -0.000846     7.235
   1.28758  0.24078 -0.02549 -1.15424  0.011277  0.001505 -0.000810     7.491
   1.30460  0.25777 -0.02465 -1.15035  0.011904  0.001550 -0.000779     7.682
   1.32169  0.27484 -0.02379 -1.14670  0.012425  0.001593 -0.000752     7.798
   1.33881  0.29194 -0.02292 -1.14320  0.012818  0.001637 -0.000729     7.831
   1.35590  0.30901 -0.02207 -1.13979  0.013068  0.001681 -0.000709     7.775
   1.37294  0.32603 -0.02124 -1.13638  0.013153  0.001726 -0.000692     7.621
   1.38994  0.34301 -0.02043 -1.13291  0.013046  0.001772 -0.000678     7.362
   1.40689  0.35994 -0.01967 -1.12928  0.012707  0.001820 -0.000668     6.980
   1.42382  0.37686 -0.01894 -1.12012  0.012094  0.001948 -0.000269     6.208
   1.44075  0.39378 -0.01827 -1.08292  0.011240  0.002496 -0.000161     4.504
   1.45775  0.41076 -0.01762 -1.04932  0.010180  0.003011  0.000510     3.381
   1.47481  0.42781 -0.01697 -1.02676  0.009157  0.003369  0.001783     2.718
   1.49192  0.44491 -0.01629 -1.01334  0.008287  0.003595  0.003042     2.305
   1.50907  0.46204 -0.01560 -1.00654  0.007614  0.003728  0.004130     2.042
   1.52625  0.47921 -0.01490 -1.00366  0.007129  0.003810  0.005004     1.871
   1.54344  0.49639 -0.01420 -1.00271  0.006801  0.003869  0.005664     1.758
   1.56064  0.51357 -0.01350 -1.00250  0.006594  0.003922  0.006135     1.681
   1.57783  0.53074 -0.01280 -1.00248  0.006473  0.003977  0.006455     1.628
   1.59499  0.54790 -0.01211 -1.00239  0.006415  0.004034  0.006656     1.590
   1.61214  0.56503 -0.01143 -1.00209  0.006405  0.004096  0.006767     1.564
   1.62928  0.58215 -0.01076 -1.00162  0.006426  0.004160  0.006813     1.545
   1.64639  0.59926 -0.01011 -1.00100  0.006471  0.004228  0.006813     1.531
   1.66350  0.61635 -0.00947 -1.00025  0.006533  0.004297  0.006781     1.520
   1.68058  0.63342 -0.00885 -0.99947  0.006606  0.004367  0.006729     1.513
   1.69766  0.65049 -0.00825 -0.99863  0.006687  0.004437  0.006662     1.507
   1.71473  0.66755 -0.00768 -0.99780  0.006772  0.004507  0.006588     1.503
   1.73178  0.68459 -0.00712 -0.99697  0.006861  0.004576  0.006508     1.499
   1.74883  0.70164 -0.00659 -0.99620  0.006951  0.004644  0.006428     1.497
   1.76588  0.71867 -0.00608 -0.99549  0.007040  0.004711  0.006349     1.495
   1.78292  0.73570 -0.00560 -0.99486  0.007129  0.004775  0.006272     1.493
   1.79995  0.75273 -0.00514 -0.99432  0.007214  0.004838  0.006200     1.491
   1.81698  0.76976 -0.00471 -0.99387  0.007298  0.004899  0.006131     1.490
   1.83401  0.78678 -0.00431 -0.99355  0.007377  0.004957  0.006068     1.488
   1.85104  0.80381 -0.00393 -0.99337  0.007451  0.005012  0.006012     1.487
   1.86807  0.82084 -0.00357 -0.99334  0.007520  0.005065  0.005962     1.485
   1.88510  0.83786 -0.00324 -0.99345  0.007584  0.005114  0.005918     1.483
   1.90213  0.85489 -0.00294 -0.99383  0.007638  0.005158  0.005885     1.481
   1.91914  0.87190 -0.00266 -0.99434  0.007687  0.005199  0.005858     1.478
   1.93613  0.88889 -0.00241 -0.99515  0.007725  0.005235  0.005842     1.476
   1.95305  0.90581 -0.00218 -0.99627  0.007751  0.005264  0.005838     1.473
   1.96983  0.92258 -0.00197 -0.99778  0.007763  0.005286  0.005850     1.469
   1.98627  0.93902 -0.00179 -0.99979  0.007756  0.005297  0.005881     1.464
   2.00209  0.95483 -0.00163 -1.00240  0.007725  0.005296  0.005936     1.459
   2.01678  0.96953 -0.00150 -1.00571  0.007667  0.005279  0.006020     1.452
   2.02984  0.98258 -0.00139 -1.00992  0.007572  0.005242  0.006145     1.444
   2.04093  0.99368 -0.00131 -1.01474  0.007453  0.005191  0.006300     1.436
   2.04725  1.00000 -0.00126 -1.02273  0.007207  0.005072  0.006615     1.421
   2.04725  1.00010 -0.00001  1.02273  0.062181  0.011998  0.000000     5.183
   2.05356  1.00636 -0.00082  1.01864  0.061308  0.012343  0.000000     4.967
   2.06096  1.01371 -0.00167  1.01287  0.060072  0.012831  0.000000     4.682
   2.06964  1.02233 -0.00261  1.00574  0.058539  0.013436  0.000000     4.357
   2.07981  1.03245 -0.00367  0.99678  0.056682  0.014199  0.000000     3.992
   2.09174  1.04432 -0.00486  0.98547  0.054471  0.015169  0.000000     3.591
   2.10574  1.05825 -0.00620  0.97412  0.051791  0.016149  0.000000     3.207
   2.12215  1.07459 -0.00770  0.96341  0.048634  0.017071  0.000000     2.849
   2.14139  1.09376 -0.00938  0.95389  0.045048  0.017884  0.000000     2.519
   2.16396  1.11625 -0.01127  0.94658  0.041134  0.018496  0.000000     2.224
   2.19042  1.14263 -0.01339  0.94242  0.037071  0.018832  0.000000     1.968
   2.22145  1.17357 -0.01577  0.94194  0.033099  0.018870  0.000000     1.754
   2.25784  1.20987 -0.01842  0.94495  0.029458  0.018650  0.000000     1.579
   2.30052  1.25244 -0.02137  0.95054  0.026324  0.018268  0.000000     1.441
   2.35057  1.30238 -0.02467  0.95745  0.023762  0.017825  0.000000     1.333
   2.40926  1.36095 -0.02834  0.96452  0.021743  0.017399  0.000000     1.250
   2.47809  1.42966 -0.03242  0.97104  0.020185  0.017025  0.000000     1.186
   2.55880  1.51024 -0.03695  0.97674  0.018998  0.016714  0.000000     1.137
   2.65345  1.60476 -0.04198  0.98154  0.018103  0.016460  0.000000     1.100
   2.76445  1.71562 -0.04756  0.98549  0.017437  0.016257  0.000000     1.073
   2.89461  1.84563 -0.05376  0.98870  0.016945  0.016096  0.000000     1.053
   3.04725  1.99812 -0.06065  0.99219  0.016534  0.015924  0.000000     1.038
