#    s        x        y     Ue/Vinf    Dstar     Theta      Cf       H
   0.00000  1.00000  0.00126  1.00688  0.052390  0.010602 -0.000107     4.942
   0.00630  0.99392  0.00292  1.01058  0.051724  0.010334 -0.000112     5.005
   0.01727  0.98333  0.00577  1.01726  0.050513  0.009865 -0.000119     5.120
   0.03004  0.97098  0.00904  1.02548  0.049153  0.009310 -0.000128     5.280
   0.04430  0.95718  0.01262  1.03530  0.047709  0.008678 -0.000139     5.498
   0.05958  0.94237  0.01638  1.04664  0.046250  0.007985 -0.000151     5.792
   0.07546  0.92696  0.02021  1.05944  0.044825  0.007248 -0.000164     6.185
   0.09164  0.91123  0.02403  1.07371  0.043454  0.006474 -0.000181     6.712
   0.10799  0.89533  0.02780  1.08975  0.042131  0.005660 -0.000204     7.444
   0.12441  0.87933  0.03149  1.10784  0.040835  0.004805 -0.000237     8.499
   0.14087  0.86327  0.03511  1.12846  0.039528  0.003901 -0.000280    10.132
   0.15734  0.84718  0.03864  1.15297  0.038119  0.002914 -0.000292    13.082
   0.17383  0.83106  0.04208  1.17030  0.036806  0.002279 -0.000492    16.149
   0.19032  0.81492  0.04544  1.17067  0.035743  0.002269 -0.000495    15.750
   0.20680  0.79875  0.04870  1.17101  0.034542  0.002261 -0.000498    15.277
   0.22329  0.78258  0.05188  1.17133  0.033245  0.002253 -0.000501    14.754
   0.23978  0.76638  0.05496  1.17165  0.031884  0.002246 -0.000504    14.195
   0.25626  0.75017  0.05796  1.17199  0.030479  0.002239 -0.000507    13.613
   0.27274  0.73395  0.06086  1.17234  0.029043  0.002232 -0.000511    13.014
   0.28921  0.71772  0.06368  1.17273  0.027590  0.002224 -0.000515    12.406
   0.30568  0.70148  0.06640  1.17316  0.026128  0.002215 -0.000519    11.794
   0.32214  0.68523  0.06902  1.17365  0.024666  0.002206 -0.000524    11.180
   0.33859  0.66898  0.07155  1.17421  0.023213  0.002196 -0.000531    10.571
   0.35503  0.65272  0.07398  1.17486  0.021774  0.002184 -0.000538     9.969
   0.37146  0.63645  0.07632  1.17562  0.020358  0.002171 -0.000546     9.377
   0.38788  0.62019  0.07855  1.17651  0.018969  0.002156 -0.000556     8.798
   0.40429  0.60392  0.08069  1.17758  0.017616  0.002139 -0.000569     8.236
   0.42068  0.58766  0.08272  1.17885  0.016301  0.002119 -0.000583     7.691
   0.43705  0.57140  0.08465  1.18037  0.015034  0.002097 -0.000602     7.169
   0.45341  0.55514  0.08647  1.18220  0.013817  0.002072 -0.000624     6.668
   0.46975  0.53889  0.08818  1.18440  0.012657  0.002043 -0.000652     6.194
   0.48606  0.52265  0.08978  1.18705  0.011559  0.002011 -0.000683     5.747
   0.50236  0.50642  0.09127  1.19023  0.010526  0.001975 -0.000702     5.329
   0.51863  0.49021  0.09264  1.19403  0.009563  0.001935 -0.000698     4.943
   0.53487  0.47402  0.09390  1.19852  0.008672  0.001890 -0.000636     4.589
   0.55108  0.45785  0.09503  1.20375  0.007850  0.001841 -0.000479     4.264
   0.56725  0.44172  0.09603  1.20963  0.007098  0.001789 -0.000197     3.969
   0.58335  0.42564  0.09690  1.21629  0.006414  0.001732  0.000231     3.703
   0.59935  0.40965  0.09765  1.22380  0.005791  0.001671  0.000819     3.466
   0.61519  0.39382  0.09824  1.23211  0.005218  0.001605  0.001597     3.250
   0.63085  0.37817  0.09865  1.24067  0.004743  0.001539  0.002441     3.082
   0.64639  0.36263  0.09885  1.24901  0.004354  0.001474  0.003296     2.954
   0.66187  0.34716  0.09884  1.25677  0.004031  0.001412  0.004140     2.855
   0.67728  0.33174  0.09863  1.26372  0.003758  0.001353  0.004955     2.778
   0.69264  0.31639  0.09821  1.26972  0.003525  0.001298  0.005737     2.717
   0.70795  0.30109  0.09757  1.27471  0.003322  0.001245  0.006492     2.667
   0.72321  0.28586  0.09672  1.27865  0.003143  0.001196  0.007215     2.628
   0.73841  0.27069  0.09564  1.28153  0.002980  0.001149  0.007921     2.595
   0.75355  0.25561  0.09433  1.28334  0.002833  0.001103  0.008610     2.567
   0.76863  0.24061  0.09280  1.28409  0.002695  0.001060  0.009295     2.544
   0.78363  0.22571  0.09103  1.28372  0.002567  0.001017  0.009971     2.524
   0.79855  0.21092  0.08902  1.28222  0.002445  0.000976  0.010652     2.506
   0.81339  0.19626  0.08678  1.27955  0.002329  0.000935  0.011342     2.491
   0.82811  0.18175  0.08429  1.27562  0.002218  0.000895  0.012040     2.478
   0.84271  0.16741  0.08155  1.27043  0.002108  0.000855  0.012774     2.466
   0.85717  0.15327  0.07856  1.26376  0.002003  0.000815  0.013511     2.456
   0.87144  0.13937  0.07533  1.25567  0.001897  0.000776  0.014316     2.446
   0.88548  0.12576  0.07185  1.24586  0.001794  0.000736  0.015162     2.438
   0.89921  0.11254  0.06815  1.23421  0.001692  0.000696  0.016033     2.431
   0.91255  0.09978  0.06426  1.22072  0.001588  0.000656  0.017037     2.423
   0.92536  0.08762  0.06020  1.20498  0.001488  0.000616  0.018048     2.417
   0.93750  0.07622  0.05606  1.18724  0.001388  0.000576  0.019217     2.410
   0.94879  0.06572  0.05190  1.16719  0.001290  0.000537  0.020441     2.404
   0.95911  0.05625  0.04782  1.14506  0.001195  0.000499  0.021823     2.396
   0.96837  0.04786  0.04389  1.12072  0.001107  0.000463  0.023201     2.390
   0.97657  0.04055  0.04017  1.09456  0.001022  0.000429  0.024743     2.381
   0.98379  0.03423  0.03668  1.06623  0.000944  0.000398  0.026340     2.372
   0.99012  0.02879  0.03343  1.03574  0.000873  0.000369  0.027766     2.368
   0.99570  0.02411  0.03040  1.00325  0.000803  0.000341  0.029654     2.354
   1.00063  0.02008  0.02756  0.96722  0.000743  0.000316  0.031052     2.349
   1.00502  0.01660  0.02489  0.92828  0.000683  0.000292  0.032822     2.336
   1.00896  0.01357  0.02236  0.88470  0.000630  0.000271  0.034157     2.328
   1.01253  0.01095  0.01995  0.83631  0.000579  0.000250  0.035576     2.315
   1.01577  0.00867  0.01764  0.78157  0.000533  0.000231  0.036371     2.307
   1.01874  0.00671  0.01541  0.71942  0.000488  0.000213  0.037128     2.291
   1.02149  0.00502  0.01324  0.64764  0.000450  0.000197  0.036564     2.283
   1.02404  0.00360  0.01113  0.56577  0.000413  0.000182  0.035208     2.270
   1.02642  0.00242  0.00906  0.47127  0.000380  0.000168  0.032157     2.259
   1.02866  0.00148  0.00703  0.36311  0.000352  0.000157  0.027028     2.247
   1.03077  0.00077  0.00504  0.24127  0.000327  0.000146  0.019401     2.245
   1.03277  0.00029  0.00309  0.10371  0.000304  0.000137  0.009080     2.230
   1.03468  0.00004  0.00120 -0.04120  0.000304  0.000137  0.003611     2.230
   1.03651  0.00001 -0.00064 -0.19198  0.000286  0.000128  0.018026     2.223
   1.03838  0.00020 -0.00249 -0.35111  0.000288  0.000129  0.032338     2.237
   1.04030  0.00065 -0.00436 -0.51491  0.000287  0.000129  0.048059     2.225
   1.04230  0.00137 -0.00623 -0.66923  0.000303  0.000134  0.057367     2.258
   1.04439  0.00239 -0.00805 -0.80401  0.000324  0.000143  0.064242     2.262
   1.04657  0.00369 -0.00980 -0.91508  0.000357  0.000156  0.064357     2.294
   1.04888  0.00527 -0.01148 -1.00065  0.000399  0.000172  0.061671     2.318
   1.05132  0.00712 -0.01307 -1.06470  0.000449  0.000191  0.056722     2.347
   1.05393  0.00925 -0.01459 -1.11068  0.000507  0.000213  0.050751     2.378
   1.05675  0.01167 -0.01603 -1.14335  0.000572  0.000237  0.045065     2.407
   1.05979  0.01438 -0.01741 -1.16573  0.000644  0.000264  0.039489     2.438
   1.06312  0.01744 -0.01873 -1.18031  0.000725  0.000293  0.034433     2.469
   1.06679  0.02087 -0.02000 -1.18900  0.000813  0.000325  0.029920     2.500
   1.07086  0.02476 -0.02123 -1.19345  0.000909  0.000360  0.026055     2.528
   1.07542  0.02916 -0.02242 -1.19433  0.001016  0.000397  0.022538     2.559
   1.08058  0.03419 -0.02357 -1.19236  0.001135  0.000438  0.019455     2.590
   1.08647  0.03998 -0.02467 -1.18816  0.001266  0.000483  0.016792     2.620
   1.09325  0.04667 -0.02572 -1.18198  0.001414  0.000533  0.014415     2.652
   1.10108  0.05445 -0.02670 -1.17395  0.001581  0.000589  0.012280     2.686
   1.11013  0.06345 -0.02758 -1.16452  0.001766  0.000649  0.010457     2.720
   1.12048  0.07377 -0.02833 -1.15394  0.001973  0.000716  0.008872     2.755
   1.13215  0.08543 -0.02891 -1.14258  0.002199  0.000788  0.007517     2.792
   1.14504  0.09832 -0.02929 -1.13085  0.002442  0.000863  0.006378     2.828
   1.15896  0.11223 -0.02947 -1.11921  0.002694  0.000941  0.005451     2.863
   1.17368  0.12696 -0.02945 -1.10786  0.002956  0.001020  0.004673     2.899
   1.18901  0.14228 -0.02924 -1.09702  0.003222  0.001098  0.004036     2.934
   1.20480  0.15806 -0.02887 -1.08685  0.003484  0.001176  0.003533     2.964
   1.22092  0.17418 -0.02837 -1.07728  0.003748  0.001252  0.003102     2.994
   1.23731  0.19056 -0.02776 -1.06839  0.004004  0.001326  0.002766     3.020
   1.25391  0.20714 -0.02707 -1.06012  0.004254  0.001399  0.002491     3.042
   1.27067  0.22389 -0.02630 -1.05244  0.004496  0.001469  0.002268     3.060
   1.28758  0.24078 -0.02549 -1.04533  0.004727  0.001538  0.002092     3.074
   1.30460  0.25777 -0.02465 -1.03876  0.004943  0.001604  0.001961     3.082
   1.32169  0.27484 -0.02379 -1.03270  0.005145  0.001668  0.001864     3.085
   1.33881  0.29194 -0.02292 -1.02718  0.005325  0.001729  0.001805     3.081
   1.35590  0.30901 -0.02207 -1.02214  0.005488  0.001787  0.001772     3.071
   1.37294  0.32603 -0.02124 -1.01761  0.005627  0.001842  0.001771     3.054
   1.38994  0.34301 -0.02043 -1.01358  0.005740  0.001894  0.001799     3.030
   1.40689  0.35994 -0.01967 -1.01006  0.005828  0.001943  0.001856     2.999
   1.42382  0.37686 -0.01894 -1.00707  0.005887  0.001988  0.001945     2.961
   1.44075  0.39378 -0.01827 -1.00469  0.005910  0.002028  0.002074     2.914
   1.45775  0.41076 -0.01762 -1.00295  0.005903  0.002064  0.002238     2.860
   1.47481  0.42781 -0.01697 -1.00128  0.005932  0.002100  0.002335     2.825
   1.49192  0.44491 -0.01629 -0.99967  0.005984  0.002137  0.002387     2.801
   1.50907  0.46204 -0.01560 -0.99807  0.006054  0.002174  0.002404     2.785
   1.52625  0.47921 -0.01490 -0.99651  0.006135  0.002211  0.002401     2.775
   1.54344  0.49639 -0.01420 -0.99495  0.006226  0.002248  0.002381     2.769
   1.56064  0.51357 -0.01350 -0.99339  0.006323  0.002286  0.002350     2.766
   1.57783  0.53074 -0.01280 -0.99188  0.006420  0.002323  0.002316     2.764
   1.59499  0.54790 -0.01211 -0.99042  0.006518  0.002359  0.002282     2.763
   1.61214  0.56503 -0.01143 -0.98900  0.006616  0.002395  0.002248     2.762
   1.62928  0.58215 -0.01076 -0.98763  0.006711  0.002431  0.002216     2.761
   1.64639  0.59926 -0.01011 -0.98634  0.006802  0.002465  0.002190     2.759
   1.66350  0.61635 -0.00947 -0.98511  0.006889  0.002499  0.002166     2.756
   1.68058  0.63342 -0.00885 -0.98397  0.006969  0.002532  0.002150     2.752
   1.69766  0.65049 -0.00825 -0.98292  0.007044  0.002564  0.002138     2.747
   1.71473  0.66755 -0.00768 -0.98197  0.007112  0.002595  0.002133     2.741
   1.73178  0.68459 -0.00712 -0.98111  0.007173  0.002624  0.002133     2.733
   1.74883  0.70164 -0.00659 -0.98036  0.007228  0.002653  0.002139     2.724
   1.76588  0.71867 -0.00608 -0.97973  0.007274  0.002680  0.002152     2.714
   1.78292  0.73570 -0.00560 -0.97922  0.007313  0.002706  0.002170     2.703
   1.79995  0.75273 -0.00514 -0.97884  0.007343  0.002730  0.002195     2.690
   1.81698  0.76976 -0.00471 -0.97858  0.007367  0.002753  0.002225     2.676
   1.83401  0.78678 -0.00431 -0.97848  0.007381  0.002775  0.002262     2.660
   1.85104  0.80381 -0.00393 -0.97852  0.007387  0.002794  0.002306     2.643
   1.86807  0.82084 -0.00357 -0.97874  0.007383  0.002812  0.002357     2.625
   1.88510  0.83786 -0.00324 -0.97913  0.007371  0.002828  0.002415     2.606
   1.90213  0.85489 -0.00294 -0.97976  0.007345  0.002842  0.002485     2.585
   1.91914  0.87190 -0.00266 -0.98059  0.007311  0.002853  0.002562     2.563
   1.93613  0.88889 -0.00241 -0.98168  0.007263  0.002861  0.002652     2.538
   1.95305  0.90581 -0.00218 -0.98309  0.007200  0.002867  0.002757     2.512
   1.96983  0.92258 -0.00197 -0.98487  0.007120  0.002868  0.002880     2.483
   1.98627  0.93902 -0.00179 -0.98708  0.007020  0.002864  0.003027     2.451
   2.00209  0.95483 -0.00163 -0.98981  0.006895  0.002854  0.003204     2.416
   2.01678  0.96953 -0.00150 -0.99308  0.006746  0.002838  0.003415     2.377
   2.02984  0.98258 -0.00139 -0.99698  0.006567  0.002813  0.003671     2.335
   2.04093  0.99368 -0.00131 -1.00133  0.006372  0.002781  0.003960     2.291
   2.04725  1.00000 -0.00126 -1.00688  0.006091  0.002730  0.004400     2.231
   2.04725  1.00010 -0.00001  1.00688  0.060956  0.013331  0.000000     4.572
   2.05356  1.00636 -0.00082  1.00294  0.060067  0.013674  0.000000     4.393
   2.06096  1.01371 -0.00165  0.99711  0.058824  0.014184  0.000000     4.147
   2.06964  1.02234 -0.00256  0.98982  0.057300  0.014823  0.000000     3.866
   2.07981  1.03246 -0.00358  0.98086  0.055466  0.015613  0.000000     3.553
   2.09174  1.04434 -0.00470  0.97192  0.053226  0.016404  0.000000     3.245
   2.10574  1.05828 -0.00595  0.96314  0.050572  0.017179  0.000000     2.944
   2.12215  1.07463 -0.00733  0.95485  0.047513  0.017908  0.000000     2.653
   2.14139  1.09381 -0.00886  0.94775  0.044088  0.018521  0.000000     2.380
   2.16396  1.11631 -0.01055  0.94266  0.040395  0.018951  0.000000     2.132
   2.19042  1.14271 -0.01240  0.94028  0.036593  0.019144  0.000000     1.911
   2.22145  1.17368 -0.01443  0.94097  0.032885  0.019091  0.000000     1.723
   2.25784  1.21000 -0.01663  0.94454  0.029474  0.018829  0.000000     1.565
   2.30052  1.25262 -0.01902  0.95023  0.026509  0.018437  0.000000     1.438
   2.35057  1.30260 -0.02159  0.95699  0.024050  0.018000  0.000000     1.336
   2.40926  1.36122 -0.02435  0.96387  0.022079  0.017580  0.000000     1.256
   2.47809  1.42999 -0.02727  0.97026  0.020532  0.017209  0.000000     1.193
   2.55880  1.51064 -0.03035  0.97588  0.019334  0.016897  0.000000     1.144
   2.65345  1.60524 -0.03357  0.98068  0.018417  0.016640  0.000000     1.107
   2.76445  1.71618 -0.03689  0.98467  0.017724  0.016432  0.000000     1.079
   2.89461  1.84630 -0.04029  0.98793  0.017205  0.016267  0.000000     1.058
   3.04725  1.99891 -0.04372  0.99157  0.016766  0.016085  0.000000     1.042
