#    s        x        y     Ue/Vinf    Dstar     Theta      Cf       H
   0.00000  1.00000  0.00126  1.27262  0.435384  0.029447 -0.000125    14.786
   0.00630  0.99392  0.00292  1.27318  0.432879  0.029229 -0.000126    14.810
   0.01727  0.98333  0.00577  1.27417  0.428510  0.028849 -0.000128    14.853
   0.03004  0.97098  0.00904  1.27534  0.423275  0.028408 -0.000130    14.900
   0.04430  0.95718  0.01262  1.27666  0.417326  0.027914 -0.000132    14.950
   0.05958  0.94237  0.01638  1.27810  0.410865  0.027385 -0.000135    15.003
   0.07546  0.92696  0.02021  1.27963  0.404074  0.026833 -0.000138    15.059
   0.09164  0.91123  0.02403  1.28123  0.397086  0.026268 -0.000141    15.116
   0.10799  0.89533  0.02780  1.28288  0.389978  0.025696 -0.000144    15.177
   0.12441  0.87933  0.03149  1.28457  0.382789  0.025119 -0.000147    15.239
   0.14087  0.86327  0.03511  1.28632  0.375546  0.024537 -0.000151    15.305
   0.15734  0.84718  0.03864  1.28811  0.368261  0.023952 -0.000155    15.375
   0.17383  0.83106  0.04208  1.28996  0.360944  0.023363 -0.000159    15.450
   0.19032  0.81492  0.04544  1.29186  0.353599  0.022770 -0.000163    15.529
   0.20680  0.79875  0.04870  1.29382  0.346229  0.022173 -0.000168    15.615
   0.22329  0.78258  0.05188  1.29583  0.338842  0.021572 -0.000173    15.707
   0.23978  0.76638  0.05496  1.29792  0.331435  0.020967 -0.000178    15.808
   0.25626  0.75017  0.05796  1.30007  0.324014  0.020356 -0.000184    15.917
   0.27274  0.73395  0.06086  1.30229  0.316580  0.019741 -0.000190    16.037
   0.28921  0.71772  0.06368  1.30460  0.309136  0.019120 -0.000196    16.168
   0.30568  0.70148  0.06640  1.30699  0.301681  0.018493 -0.000203    16.313
   0.32214  0.68523  0.06902  1.30947  0.294219  0.017859 -0.000210    16.474
   0.33859  0.66898  0.07155  1.31205  0.286752  0.017219 -0.000219    16.654
   0.35503  0.65272  0.07398  1.31475  0.279279  0.016570 -0.000227    16.854
   0.37146  0.63645  0.07632  1.31756  0.271803  0.015913 -0.000237    17.080
   0.38788  0.62019  0.07855  1.32050  0.264325  0.015247 -0.000248    17.336
   0.40429  0.60392  0.08069  1.32363  0.256835  0.014560 -0.000260    17.639
   0.42068  0.58766  0.08272  1.32694  0.249345  0.013859 -0.000274    17.991
   0.43705  0.57140  0.08465  1.33043  0.241854  0.013145 -0.000289    18.399
   0.45341  0.55514  0.08647  1.33412  0.234362  0.012416 -0.000306    18.876
   0.46975  0.53889  0.08818  1.33804  0.226870  0.011669 -0.000326    19.443
   0.48606  0.52265  0.08978  1.34224  0.219377  0.010901 -0.000350    20.124
   0.50236  0.50642  0.09127  1.34674  0.211880  0.010110 -0.000378    20.957
   0.51863  0.49021  0.09264  1.35161  0.204376  0.009290 -0.000402    22.000
   0.53487  0.47402  0.09390  1.35693  0.196864  0.008434 -0.000405    23.342
   0.55108  0.45785  0.09503  1.36281  0.189330  0.007532 -0.000409    25.138
   0.56725  0.44172  0.09603  1.36935  0.181776  0.006576 -0.000413    27.644
   0.58335  0.42564  0.09690  1.37687  0.174173  0.005534 -0.000417    31.472
   0.59935  0.40965  0.09765  1.38591  0.166484  0.004349 -0.000423    38.282
   0.61519  0.39382  0.09824  1.39807  0.158552  0.002833 -0.000430    55.973
   0.63085  0.37817  0.09865  1.40901  0.150910  0.001585 -0.002459    95.216
   0.64639  0.36263  0.09885  1.40931  0.144399  0.001563 -0.002495    92.386
   0.66187  0.34716  0.09884  1.40961  0.137890  0.001542 -0.002531    89.445
   0.67728  0.33174  0.09863  1.40993  0.131397  0.001521 -0.002567    86.412
   0.69264  0.31639  0.09821  1.41026  0.124928  0.001500 -0.002604    83.293
   0.70795  0.30109  0.09757  1.41060  0.118500  0.001479 -0.002641    80.107
   0.72321  0.28586  0.09672  1.41097  0.112118  0.001459 -0.002680    76.854
   0.73841  0.27069  0.09564  1.41136  0.105790  0.001439 -0.002719    73.541
   0.75355  0.25561  0.09433  1.41177  0.099524  0.001418 -0.002760    70.173
   0.76863  0.24061  0.09280  1.41220  0.093327  0.001398 -0.002802    66.755
   0.78363  0.22571  0.09103  1.41267  0.087203  0.001378 -0.002845    63.286
   0.79855  0.21092  0.08902  1.41317  0.081164  0.001358 -0.002890    59.777
   0.81339  0.19626  0.08678  1.41371  0.075210  0.001338 -0.002937    56.222
   0.82811  0.18175  0.08429  1.41430  0.069355  0.001318 -0.002985    52.635
   0.84271  0.16741  0.08155  1.41493  0.063603  0.001298 -0.003035    49.016
   0.85717  0.15327  0.07856  1.41563  0.057970  0.001277 -0.003088    45.378
   0.87144  0.13937  0.07533  1.41639  0.052465  0.001257 -0.003143    41.726
   0.88548  0.12576  0.07185  1.41724  0.047110  0.001237 -0.003201    38.079
   0.89921  0.11254  0.06815  1.41819  0.041932  0.001217 -0.003263    34.463
   0.91255  0.09978  0.06426  1.41926  0.036959  0.001196 -0.003329    30.899
   0.92536  0.08762  0.06020  1.42048  0.032252  0.001175 -0.003402    27.448
   0.93750  0.07622  0.05606  1.42189  0.027848  0.001153 -0.003482    24.145
   0.94879  0.06572  0.05190  1.42353  0.023812  0.001131 -0.003572    21.057
   0.95911  0.05625  0.04782  1.42546  0.020186  0.001107 -0.003676    18.232
   0.96837  0.04786  0.04389  1.42778  0.016991  0.001082 -0.003798    15.705
   0.97657  0.04055  0.04017  1.43062  0.014220  0.001055 -0.003945    13.485
   0.98379  0.03423  0.03668  1.43414  0.011847  0.001024 -0.004126    11.564
   0.99012  0.02879  0.03343  1.43858  0.009825  0.000991 -0.004356     9.912
   0.99570  0.02411  0.03040  1.44426  0.008114  0.000954 -0.004658     8.502
   1.00063  0.02008  0.02756  1.45157  0.006664  0.000913 -0.005070     7.296
   1.00502  0.01660  0.02489  1.46105  0.005444  0.000868 -0.005652     6.272
   1.00896  0.01357  0.02236  1.47346  0.004421  0.000818 -0.006307     5.407
   1.01253  0.01095  0.01995  1.48965  0.003570  0.000762 -0.006165     4.685
   1.01577  0.00867  0.01764  1.51011  0.002872  0.000702 -0.003240     4.092
   1.01874  0.00671  0.01541  1.53476  0.002305  0.000638  0.004369     3.611
   1.02149  0.00502  0.01324  1.56338  0.001853  0.000572  0.017481     3.240
   1.02404  0.00360  0.01113  1.59341  0.001501  0.000506  0.035908     2.966
   1.02642  0.00242  0.00906  1.62062  0.001229  0.000445  0.059626     2.760
   1.02866  0.00148  0.00703  1.63940  0.001021  0.000392  0.087619     2.606
   1.03077  0.00077  0.00504  1.64366  0.000869  0.000348  0.116302     2.498
   1.03277  0.00029  0.00309  1.62925  0.000751  0.000312  0.145923     2.411
   1.03468  0.00004  0.00120  1.59160  0.000671  0.000284  0.167703     2.360
   1.03651  0.00001 -0.00064  1.53237  0.000608  0.000263  0.186763     2.312
   1.03838  0.00020 -0.00249  1.44368  0.000562  0.000247  0.197131     2.274
   1.04030  0.00065 -0.00436  1.32418  0.000535  0.000238  0.194859     2.248
   1.04230  0.00137 -0.00623  1.17709  0.000521  0.000235  0.182618     2.218
   1.04439  0.00239 -0.00805  1.00994  0.000529  0.000240  0.155905     2.205
   1.04657  0.00369 -0.00980  0.84081  0.000553  0.000250  0.124063     2.207
   1.04888  0.00527 -0.01148  0.67612  0.000581  0.000265  0.096277     2.191
   1.05132  0.00712 -0.01307  0.52167  0.000635  0.000288  0.067066     2.206
   1.05393  0.00925 -0.01459  0.38411  0.000684  0.000311  0.046160     2.199
   1.05675  0.01167 -0.01603  0.26060  0.000751  0.000338  0.027954     2.222
   1.05979  0.01438 -0.01741  0.14959  0.000809  0.000367  0.015087     2.207
   1.06312  0.01744 -0.01873  0.05256  0.000942  0.000423  0.004461     2.230
   1.06679  0.02087 -0.02000 -0.03445  0.000942  0.000423  0.002924     2.230
   1.07086  0.02476 -0.02123 -0.11425  0.001089  0.000483  0.008223     2.252
   1.07542  0.02916 -0.02242 -0.18532  0.001177  0.000526  0.012486     2.239
   1.08058  0.03419 -0.02357 -0.25151  0.001292  0.000571  0.015100     2.264
   1.08647  0.03998 -0.02467 -0.31122  0.001421  0.000626  0.016902     2.269
   1.09325  0.04667 -0.02572 -0.36708  0.001554  0.000683  0.018118     2.276
   1.10108  0.05445 -0.02670 -0.41840  0.001713  0.000748  0.018478     2.290
   1.11013  0.06345 -0.02758 -0.46527  0.001885  0.000820  0.018530     2.299
   1.12048  0.07377 -0.02833 -0.50838  0.002067  0.000896  0.018336     2.306
   1.13215  0.08543 -0.02891 -0.54707  0.002268  0.000979  0.017780     2.318
   1.14504  0.09832 -0.02929 -0.58118  0.002479  0.001065  0.017129     2.327
   1.15896  0.11223 -0.02947 -0.61092  0.002696  0.001154  0.016416     2.336
   1.17368  0.12696 -0.02945 -0.63673  0.002912  0.001243  0.015724     2.344
   1.18901  0.14228 -0.02924 -0.65894  0.003132  0.001332  0.015009     2.352
   1.20480  0.15806 -0.02887 -0.67839  0.003340  0.001417  0.014429     2.356
   1.22092  0.17418 -0.02837 -0.69531  0.003550  0.001502  0.013819     2.363
   1.23731  0.19056 -0.02776 -0.71027  0.003749  0.001583  0.013310     2.368
   1.25391  0.20714 -0.02707 -0.72361  0.003943  0.001663  0.012842     2.372
   1.27067  0.22389 -0.02630 -0.73565  0.004129  0.001739  0.012431     2.375
   1.28758  0.24078 -0.02549 -0.74673  0.004304  0.001811  0.012093     2.376
   1.30460  0.25777 -0.02465 -0.75692  0.004473  0.001882  0.011777     2.377
   1.32169  0.27484 -0.02379 -0.76645  0.004632  0.001948  0.011515     2.377
   1.33881  0.29194 -0.02292 -0.77553  0.004776  0.002011  0.011322     2.375
   1.35590  0.30901 -0.02207 -0.78419  0.004911  0.002069  0.011157     2.373
   1.37294  0.32603 -0.02124 -0.79252  0.005036  0.002125  0.011025     2.370
   1.38994  0.34301 -0.02043 -0.80075  0.005144  0.002175  0.010961     2.365
   1.40689  0.35994 -0.01967 -0.80904  0.005233  0.002220  0.010970     2.358
   1.42382  0.37686 -0.01894 -0.81743  0.005308  0.002260  0.011017     2.349
   1.44075  0.39378 -0.01827 -0.82625  0.005358  0.002293  0.011165     2.337
   1.45775  0.41076 -0.01762 -0.83569  0.005382  0.002318  0.011403     2.322
   1.47481  0.42781 -0.01697 -0.84474  0.005442  0.002348  0.011439     2.318
   1.49192  0.44491 -0.01629 -0.85337  0.005518  0.002379  0.011384     2.319
   1.50907  0.46204 -0.01560 -0.86172  0.005596  0.002411  0.011323     2.321
   1.52625  0.47921 -0.01490 -0.86961  0.005682  0.002444  0.011206     2.325
   1.54344  0.49639 -0.01420 -0.87730  0.005762  0.002477  0.011131     2.327
   1.56064  0.51357 -0.01350 -0.88471  0.005841  0.002509  0.011055     2.328
   1.57783  0.53074 -0.01280 -0.89199  0.005913  0.002539  0.011008     2.329
   1.59499  0.54790 -0.01211 -0.89916  0.005979  0.002568  0.010981     2.328
   1.61214  0.56503 -0.01143 -0.90630  0.006037  0.002596  0.010983     2.326
   1.62928  0.58215 -0.01076 -0.91332  0.006095  0.002622  0.010981     2.324
   1.64639  0.59926 -0.01011 -0.92048  0.006137  0.002645  0.011039     2.320
   1.66350  0.61635 -0.00947 -0.92761  0.006179  0.002668  0.011084     2.316
   1.68058  0.63342 -0.00885 -0.93493  0.006207  0.002687  0.011179     2.311
   1.69766  0.65049 -0.00825 -0.94233  0.006233  0.002704  0.011274     2.305
   1.71473  0.66755 -0.00768 -0.94989  0.006251  0.002719  0.011401     2.299
   1.73178  0.68459 -0.00712 -0.95767  0.006259  0.002731  0.011555     2.292
   1.74883  0.70164 -0.00659 -0.96564  0.006263  0.002741  0.011724     2.285
   1.76588  0.71867 -0.00608 -0.97392  0.006256  0.002748  0.011930     2.277
   1.78292  0.73570 -0.00560 -0.98248  0.006244  0.002752  0.012150     2.269
   1.79995  0.75273 -0.00514 -0.99140  0.006222  0.002753  0.012401     2.260
   1.81698  0.76976 -0.00471 -1.00071  0.006191  0.002752  0.012688     2.250
   1.83401  0.78678 -0.00431 -1.01046  0.006153  0.002747  0.013010     2.240
   1.85104  0.80381 -0.00393 -1.02072  0.006105  0.002738  0.013375     2.229
   1.86807  0.82084 -0.00357 -1.03159  0.006046  0.002726  0.013788     2.218
   1.88510  0.83786 -0.00324 -1.04314  0.005976  0.002709  0.014264     2.206
   1.90213  0.85489 -0.00294 -1.05552  0.005893  0.002688  0.014808     2.192
   1.91914  0.87190 -0.00266 -1.06885  0.005797  0.002662  0.015439     2.178
   1.93613  0.88889 -0.00241 -1.08323  0.005688  0.002630  0.016155     2.163
   1.95305  0.90581 -0.00218 -1.09909  0.005556  0.002590  0.017039     2.145
   1.96983  0.92258 -0.00197 -1.11658  0.005404  0.002543  0.018094     2.125
   1.98627  0.93902 -0.00179 -1.13600  0.005227  0.002486  0.019389     2.103
   2.00209  0.95483 -0.00163 -1.15776  0.005018  0.002417  0.021035     2.076
   2.01678  0.96953 -0.00150 -1.18185  0.004780  0.002337  0.023103     2.046
   2.02984  0.98258 -0.00139 -1.20898  0.004494  0.002240  0.025923     2.007
   2.04093  0.99368 -0.00131 -1.23880  0.004182  0.002130  0.029522     1.963
   2.04725  1.00000 -0.00126 -1.27262  0.003720  0.001979  0.036265     1.880
   2.04725  1.00010 -0.00001  1.27262  0.441580  0.031426  0.000000    14.052
   2.05356  1.00636 -0.00077  1.27161  0.442224  0.031827  0.000000    13.895
   2.06096  1.01373 -0.00143  1.27032  0.442742  0.032339  0.000000    13.691
   2.06964  1.02239 -0.00204  1.26881  0.443253  0.032944  0.000000    13.455
   2.07981  1.03255 -0.00260  1.26703  0.443723  0.033659  0.000000    13.183
   2.09174  1.04447 -0.00308  1.26494  0.444118  0.034504  0.000000    12.871
   2.10574  1.05846 -0.00343  1.26249  0.444388  0.035505  0.000000    12.516
   2.12215  1.07487 -0.00361  1.25959  0.444463  0.036692  0.000000    12.113
   2.14139  1.09411 -0.00354  1.25617  0.444249  0.038102  0.000000    11.660
   2.16396  1.11667 -0.00313  1.25214  0.443615  0.039778  0.000000    11.152
   2.19042  1.14312 -0.00226  1.24739  0.442385  0.041776  0.000000    10.589
   2.22145  1.17412 -0.00078  1.24176  0.440324  0.044163  0.000000     9.970
   2.25784  1.21044  0.00151  1.23508  0.437113  0.047021  0.000000     9.296
   2.30052  1.25299  0.00485  1.22714  0.432324  0.050457  0.000000     8.568
   2.35057  1.30281  0.00954  1.21765  0.425379  0.054606  0.000000     7.790
   2.40926  1.36115  0.01594  1.20624  0.415486  0.059648  0.000000     6.966
   2.47809  1.42944  0.02452  1.19236  0.401549  0.065836  0.000000     6.099
   2.55880  1.50936  0.03581  1.17518  0.382012  0.073564  0.000000     5.193
   2.65345  1.60287  0.05048  1.15299  0.354623  0.083613  0.000000     4.241
   2.76445  1.71225  0.06933  1.12114  0.315780  0.098170  0.000000     3.217
   2.89461  1.84019  0.09331  1.10117  0.255804  0.107021  0.000000     2.390
   3.04725  1.98981  0.12354  1.24369  0.092537  0.066665  0.000000     1.388
