#    s        x        y     Ue/Vinf    Dstar     Theta      Cf       H
   0.00000  1.00000  0.00126  1.18842  0.269197  0.014337 -0.000236    18.776
   0.00630  0.99392  0.00292  1.18974  0.267211  0.014009 -0.000242    19.074
   0.01727  0.98333  0.00577  1.19210  0.263723  0.013429 -0.000253    19.638
   0.03004  0.97098  0.00904  1.19496  0.259565  0.012740 -0.000267    20.373
   0.04430  0.95718  0.01262  1.19832  0.254854  0.011950 -0.000284    21.327
   0.05958  0.94237  0.01638  1.20214  0.249744  0.011074 -0.000307    22.553
   0.07546  0.92696  0.02021  1.20641  0.244374  0.010123 -0.000320    24.140
   0.09164  0.91123  0.02403  1.21115  0.238833  0.009101 -0.000323    26.242
   0.10799  0.89533  0.02780  1.21644  0.233162  0.007999 -0.000326    29.148
   0.12441  0.87933  0.03149  1.22241  0.227369  0.006797 -0.000329    33.450
   0.14087  0.86327  0.03511  1.22949  0.221401  0.005424 -0.000333    40.816
   0.15734  0.84718  0.03864  1.23876  0.215080  0.003682 -0.000338    58.414
   0.17383  0.83106  0.04208  1.24541  0.209197  0.002513 -0.001372    83.257
   0.19032  0.81492  0.04544  1.24553  0.204305  0.002500 -0.001380    81.718
   0.20680  0.79875  0.04870  1.24564  0.199339  0.002489 -0.001386    80.098
   0.22329  0.78258  0.05188  1.24575  0.194313  0.002478 -0.001392    78.408
   0.23978  0.76638  0.05496  1.24586  0.189241  0.002469 -0.001398    76.656
   0.25626  0.75017  0.05796  1.24596  0.184133  0.002460 -0.001404    74.852
   0.27274  0.73395  0.06086  1.24606  0.178995  0.002452 -0.001408    72.997
   0.28921  0.71772  0.06368  1.24616  0.173831  0.002445 -0.001413    71.097
   0.30568  0.70148  0.06640  1.24626  0.168648  0.002439 -0.001417    69.155
   0.32214  0.68523  0.06902  1.24636  0.163446  0.002433 -0.001421    67.173
   0.33859  0.66898  0.07155  1.24645  0.158234  0.002428 -0.001424    65.158
   0.35503  0.65272  0.07398  1.24654  0.153012  0.002424 -0.001427    63.111
   0.37146  0.63645  0.07632  1.24662  0.147785  0.002421 -0.001429    61.036
   0.38788  0.62019  0.07855  1.24671  0.142554  0.002419 -0.001431    58.934
   0.40429  0.60392  0.08069  1.24679  0.137326  0.002417 -0.001433    56.812
   0.42068  0.58766  0.08272  1.24686  0.132101  0.002416 -0.001434    54.672
   0.43705  0.57140  0.08465  1.24694  0.126884  0.002416 -0.001435    52.517
   0.45341  0.55514  0.08647  1.24700  0.121675  0.002417 -0.001436    50.350
   0.46975  0.53889  0.08818  1.24707  0.116479  0.002418 -0.001436    48.177
   0.48606  0.52265  0.08978  1.24713  0.111299  0.002420 -0.001436    45.999
   0.50236  0.50642  0.09127  1.24718  0.106138  0.002422 -0.001435    43.820
   0.51863  0.49021  0.09264  1.24723  0.100999  0.002425 -0.001435    41.646
   0.53487  0.47402  0.09390  1.24728  0.095886  0.002429 -0.001434    39.479
   0.55108  0.45785  0.09503  1.24732  0.090801  0.002433 -0.001433    37.322
   0.56725  0.44172  0.09603  1.24736  0.085751  0.002437 -0.001432    35.180
   0.58335  0.42564  0.09690  1.24740  0.080743  0.002442 -0.001431    33.059
   0.59935  0.40965  0.09765  1.24743  0.075790  0.002448 -0.001430    30.965
   0.61519  0.39382  0.09824  1.24746  0.070903  0.002453 -0.001429    28.904
   0.63085  0.37817  0.09865  1.24750  0.066156  0.002458 -0.001429    26.917
   0.64639  0.36263  0.09885  1.24756  0.061543  0.002461 -0.001430    25.002
   0.66187  0.34716  0.09884  1.24765  0.057061  0.002464 -0.001432    23.158
   0.67728  0.33174  0.09863  1.24778  0.052712  0.002465 -0.001436    21.385
   0.69264  0.31639  0.09821  1.24796  0.048500  0.002464 -0.001441    19.684
   0.70795  0.30109  0.09757  1.24821  0.044428  0.002461 -0.001449    18.055
   0.72321  0.28586  0.09672  1.24856  0.040508  0.002455 -0.001460    16.502
   0.73841  0.27069  0.09564  1.24903  0.036741  0.002445 -0.001474    15.024
   0.75355  0.25561  0.09433  1.24967  0.033138  0.002432 -0.001493    13.625
   0.76863  0.24061  0.09280  1.25054  0.029706  0.002414 -0.001518    12.304
   0.78363  0.22571  0.09103  1.25171  0.026453  0.002391 -0.001550    11.065
   0.79855  0.21092  0.08902  1.25331  0.023388  0.002360 -0.001594     9.908
   0.81339  0.19626  0.08678  1.25546  0.020520  0.002322 -0.001652     8.836
   0.82811  0.18175  0.08429  1.25838  0.017859  0.002275 -0.001732     7.850
   0.84271  0.16741  0.08155  1.26232  0.015416  0.002217 -0.001843     6.953
   0.85717  0.15327  0.07856  1.26763  0.013202  0.002148 -0.001998     6.147
   0.87144  0.13937  0.07533  1.27477  0.011224  0.002065 -0.002161     5.436
   0.88548  0.12576  0.07185  1.28424  0.009493  0.001968 -0.002159     4.825
   0.89921  0.11254  0.06815  1.29644  0.008008  0.001857 -0.001643     4.312
   0.91255  0.09978  0.06426  1.31124  0.006763  0.001737 -0.000321     3.894
   0.92536  0.08762  0.06020  1.32862  0.005741  0.001608  0.001833     3.570
   0.93750  0.07622  0.05606  1.34795  0.004913  0.001476  0.004657     3.328
   0.94879  0.06572  0.05190  1.36807  0.004251  0.001348  0.007915     3.154
   0.95911  0.05625  0.04782  1.38790  0.003716  0.001227  0.011467     3.028
   0.96837  0.04786  0.04389  1.40672  0.003277  0.001117  0.015268     2.933
   0.97657  0.04055  0.04017  1.42407  0.002913  0.001018  0.019283     2.862
   0.98379  0.03423  0.03668  1.43983  0.002603  0.000929  0.023641     2.803
   0.99012  0.02879  0.03343  1.45385  0.002337  0.000848  0.028296     2.756
   0.99570  0.02411  0.03040  1.46622  0.002102  0.000775  0.033569     2.711
   1.00063  0.02008  0.02756  1.47664  0.001895  0.000709  0.039317     2.672
   1.00502  0.01660  0.02489  1.48509  0.001709  0.000649  0.045879     2.634
   1.00896  0.01357  0.02236  1.49111  0.001542  0.000593  0.053151     2.599
   1.01253  0.01095  0.01995  1.49443  0.001388  0.000542  0.061698     2.563
   1.01577  0.00867  0.01764  1.49400  0.001248  0.000494  0.071299     2.527
   1.01874  0.00671  0.01541  1.48890  0.001121  0.000450  0.082290     2.491
   1.02149  0.00502  0.01324  1.47756  0.001007  0.000410  0.094050     2.458
   1.02404  0.00360  0.01113  1.45861  0.000903  0.000373  0.107549     2.422
   1.02642  0.00242  0.00906  1.42908  0.000810  0.000339  0.121462     2.388
   1.02866  0.00148  0.00703  1.38631  0.000729  0.000310  0.135425     2.353
   1.03077  0.00077  0.00504  1.32726  0.000663  0.000285  0.146902     2.323
   1.03277  0.00029  0.00309  1.25009  0.000607  0.000265  0.155420     2.293
   1.03468  0.00004  0.00120  1.15476  0.000568  0.000249  0.155323     2.279
   1.03651  0.00001 -0.00064  1.04465  0.000534  0.000237  0.152286     2.259
   1.03838  0.00020 -0.00249  0.91102  0.000512  0.000229  0.141116     2.239
   1.04030  0.00065 -0.00436  0.75704  0.000503  0.000225  0.119908     2.234
   1.04230  0.00137 -0.00623  0.58828  0.000502  0.000227  0.094989     2.214
   1.04439  0.00239 -0.00805  0.41575  0.000525  0.000236  0.063584     2.225
   1.04657  0.00369 -0.00980  0.25090  0.000553  0.000250  0.036953     2.209
   1.04888  0.00527 -0.01148  0.10302  0.000620  0.000278  0.013278     2.230
   1.05132  0.00712 -0.01307 -0.03091  0.000620  0.000278  0.003986     2.230
   1.05393  0.00925 -0.01459 -0.14730  0.000727  0.000323  0.015934     2.248
   1.05675  0.01167 -0.01603 -0.24415  0.000795  0.000355  0.024257     2.243
   1.05979  0.01438 -0.01741 -0.32891  0.000875  0.000387  0.029128     2.264
   1.06312  0.01744 -0.01873 -0.40169  0.000965  0.000424  0.032036     2.272
   1.06679  0.02087 -0.02000 -0.46495  0.001064  0.000466  0.033199     2.286
   1.07086  0.02476 -0.02123 -0.52029  0.001172  0.000510  0.033409     2.296
   1.07542  0.02916 -0.02242 -0.56928  0.001289  0.000559  0.032877     2.308
   1.08058  0.03419 -0.02357 -0.61259  0.001421  0.000612  0.031680     2.321
   1.08647  0.03998 -0.02467 -0.65136  0.001564  0.000671  0.030309     2.332
   1.09325  0.04667 -0.02572 -0.68605  0.001725  0.000736  0.028567     2.345
   1.10108  0.05445 -0.02670 -0.71709  0.001902  0.000807  0.026761     2.357
   1.11013  0.06345 -0.02758 -0.74450  0.002102  0.000887  0.024794     2.371
   1.12048  0.07377 -0.02833 -0.76850  0.002320  0.000973  0.022914     2.384
   1.13215  0.08543 -0.02891 -0.78923  0.002553  0.001066  0.021123     2.396
   1.14504  0.09832 -0.02929 -0.80686  0.002799  0.001163  0.019473     2.407
   1.15896  0.11223 -0.02947 -0.82146  0.003056  0.001263  0.017931     2.420
   1.17368  0.12696 -0.02945 -0.83349  0.003315  0.001364  0.016592     2.430
   1.18901  0.14228 -0.02924 -0.84338  0.003573  0.001464  0.015422     2.440
   1.20480  0.15806 -0.02887 -0.85165  0.003825  0.001563  0.014436     2.447
   1.22092  0.17418 -0.02837 -0.85847  0.004076  0.001660  0.013535     2.456
   1.23731  0.19056 -0.02776 -0.86434  0.004315  0.001753  0.012805     2.461
   1.25391  0.20714 -0.02707 -0.86940  0.004548  0.001844  0.012156     2.466
   1.27067  0.22389 -0.02630 -0.87380  0.004774  0.001933  0.011587     2.470
   1.28758  0.24078 -0.02549 -0.87779  0.004988  0.002017  0.011115     2.473
   1.30460  0.25777 -0.02465 -0.88145  0.005193  0.002099  0.010709     2.474
   1.32169  0.27484 -0.02379 -0.88491  0.005384  0.002177  0.010372     2.473
   1.33881  0.29194 -0.02292 -0.88831  0.005560  0.002251  0.010115     2.470
   1.35590  0.30901 -0.02207 -0.89162  0.005725  0.002321  0.009890     2.467
   1.37294  0.32603 -0.02124 -0.89500  0.005872  0.002386  0.009737     2.462
   1.38994  0.34301 -0.02043 -0.89853  0.006001  0.002446  0.009644     2.454
   1.40689  0.35994 -0.01967 -0.90227  0.006112  0.002501  0.009604     2.444
   1.42382  0.37686 -0.01894 -0.90636  0.006199  0.002549  0.009636     2.431
   1.44075  0.39378 -0.01827 -0.91095  0.006259  0.002591  0.009753     2.415
   1.45775  0.41076 -0.01762 -0.91621  0.006289  0.002626  0.009959     2.395
   1.47481  0.42781 -0.01697 -0.92123  0.006356  0.002663  0.009991     2.387
   1.49192  0.44491 -0.01629 -0.92601  0.006441  0.002702  0.009941     2.384
   1.50907  0.46204 -0.01560 -0.93055  0.006537  0.002742  0.009843     2.384
   1.52625  0.47921 -0.01490 -0.93490  0.006636  0.002782  0.009731     2.385
   1.54344  0.49639 -0.01420 -0.93905  0.006736  0.002823  0.009613     2.387
   1.56064  0.51357 -0.01350 -0.94303  0.006837  0.002863  0.009495     2.388
   1.57783  0.53074 -0.01280 -0.94693  0.006931  0.002901  0.009397     2.389
   1.59499  0.54790 -0.01211 -0.95076  0.007020  0.002939  0.009319     2.389
   1.61214  0.56503 -0.01143 -0.95458  0.007102  0.002975  0.009260     2.388
   1.62928  0.58215 -0.01076 -0.95837  0.007179  0.003009  0.009214     2.386
   1.64639  0.59926 -0.01011 -0.96222  0.007246  0.003041  0.009195     2.382
   1.66350  0.61635 -0.00947 -0.96612  0.007306  0.003072  0.009192     2.378
   1.68058  0.63342 -0.00885 -0.97013  0.007355  0.003100  0.009217     2.373
   1.69766  0.65049 -0.00825 -0.97424  0.007399  0.003126  0.009254     2.367
   1.71473  0.66755 -0.00768 -0.97851  0.007432  0.003149  0.009316     2.360
   1.73178  0.68459 -0.00712 -0.98295  0.007456  0.003169  0.009401     2.352
   1.74883  0.70164 -0.00659 -0.98756  0.007473  0.003188  0.009499     2.344
   1.76588  0.71867 -0.00608 -0.99243  0.007477  0.003203  0.009629     2.335
   1.78292  0.73570 -0.00560 -0.99752  0.007475  0.003215  0.009773     2.325
   1.79995  0.75273 -0.00514 -1.00291  0.007460  0.003224  0.009948     2.314
   1.81698  0.76976 -0.00471 -1.00858  0.007438  0.003230  0.010141     2.303
   1.83401  0.78678 -0.00431 -1.01464  0.007403  0.003233  0.010371     2.290
   1.85104  0.80381 -0.00393 -1.02107  0.007359  0.003231  0.010625     2.277
   1.86807  0.82084 -0.00357 -1.02798  0.007300  0.003226  0.010925     2.263
   1.88510  0.83786 -0.00324 -1.03539  0.007231  0.003216  0.011259     2.248
   1.90213  0.85489 -0.00294 -1.04345  0.007144  0.003201  0.011657     2.232
   1.91914  0.87190 -0.00266 -1.05219  0.007044  0.003181  0.012105     2.215
   1.93613  0.88889 -0.00241 -1.06174  0.006927  0.003154  0.012626     2.196
   1.95305  0.90581 -0.00218 -1.07236  0.006786  0.003120  0.013258     2.175
   1.96983  0.92258 -0.00197 -1.08416  0.006623  0.003077  0.014009     2.152
   1.98627  0.93902 -0.00179 -1.09738  0.006430  0.003024  0.014926     2.127
   2.00209  0.95483 -0.00163 -1.11226  0.006205  0.002959  0.016069     2.097
   2.01678  0.96953 -0.00150 -1.12876  0.005948  0.002881  0.017475     2.064
   2.02984  0.98258 -0.00139 -1.14718  0.005647  0.002788  0.019298     2.025
   2.04093  0.99368 -0.00131 -1.16707  0.005324  0.002685  0.021518     1.983
   2.04725  1.00000 -0.00126 -1.18842  0.004888  0.002550  0.025084     1.917
   2.04725  1.00010 -0.00001  1.18842  0.276561  0.016888  0.000000    16.377
   2.05356  1.00636 -0.00079  1.18661  0.276781  0.017361  0.000000    15.943
   2.06096  1.01372 -0.00153  1.18435  0.276814  0.017956  0.000000    15.416
   2.06964  1.02237 -0.00227  1.18169  0.276756  0.018661  0.000000    14.831
   2.07981  1.03251 -0.00303  1.17856  0.276570  0.019495  0.000000    14.187
   2.09174  1.04442 -0.00379  1.17489  0.276215  0.020482  0.000000    13.485
   2.10574  1.05839 -0.00454  1.17057  0.275630  0.021654  0.000000    12.729
   2.12215  1.07479 -0.00524  1.16550  0.274739  0.023046  0.000000    11.921
   2.14139  1.09402 -0.00587  1.15951  0.273438  0.024703  0.000000    11.069
   2.16396  1.11658 -0.00638  1.15246  0.271597  0.026680  0.000000    10.180
   2.19042  1.14304 -0.00670  1.14414  0.269042  0.029047  0.000000     9.262
   2.22145  1.17408 -0.00674  1.13428  0.265559  0.031891  0.000000     8.327
   2.25784  1.21047 -0.00640  1.12256  0.260873  0.035327  0.000000     7.384
   2.30052  1.25314 -0.00554  1.10856  0.254646  0.039511  0.000000     6.445
   2.35057  1.30316 -0.00398  1.09166  0.246478  0.044664  0.000000     5.518
   2.40926  1.36180 -0.00152  1.07088  0.235944  0.051160  0.000000     4.612
   2.47809  1.43053  0.00212  1.04408  0.222765  0.059818  0.000000     3.724
   2.55880  1.51108  0.00727  1.01427  0.206262  0.069821  0.000000     2.954
   2.65345  1.60546  0.01432  0.99174  0.185962  0.077556  0.000000     2.398
   2.76445  1.71606  0.02376  0.97813  0.162978  0.082180  0.000000     1.983
   2.89461  1.84563  0.03615  0.97665  0.138242  0.082655  0.000000     1.673
   3.04725  1.99743  0.05219  1.03258  0.092892  0.067944  0.000000     1.367
