#    s        x        y     Ue/Vinf    Dstar     Theta      Cf       H
   0.00000  1.00000  0.00126  1.14401  0.138834  0.003546 -0.000288    39.154
   0.00630  0.99392  0.00292  1.14405  0.137637  0.003544 -0.000902    38.840
   0.01727  0.98333  0.00577  1.14410  0.135472  0.003541 -0.000903    38.259
   0.03004  0.97098  0.00904  1.14415  0.132864  0.003539 -0.000904    37.544
   0.04430  0.95718  0.01262  1.14421  0.129889  0.003537 -0.000904    36.718
   0.05958  0.94237  0.01638  1.14426  0.126651  0.003537 -0.000905    35.811
   0.07546  0.92696  0.02021  1.14431  0.123244  0.003536 -0.000906    34.850
   0.09164  0.91123  0.02403  1.14435  0.119739  0.003537 -0.000906    33.855
   0.10799  0.89533  0.02780  1.14440  0.116179  0.003538 -0.000906    32.841
   0.12441  0.87933  0.03149  1.14444  0.112586  0.003539 -0.000907    31.814
   0.14087  0.86327  0.03511  1.14448  0.108979  0.003540 -0.000907    30.783
   0.15734  0.84718  0.03864  1.14452  0.105364  0.003542 -0.000907    29.748
   0.17383  0.83106  0.04208  1.14456  0.101749  0.003544 -0.000908    28.713
   0.19032  0.81492  0.04544  1.14460  0.098141  0.003545 -0.000908    27.681
   0.20680  0.79875  0.04870  1.14465  0.094543  0.003547 -0.000909    26.653
   0.22329  0.78258  0.05188  1.14469  0.090958  0.003549 -0.000909    25.630
   0.23978  0.76638  0.05496  1.14474  0.087390  0.003550 -0.000910    24.614
   0.25626  0.75017  0.05796  1.14480  0.083844  0.003552 -0.000911    23.607
   0.27274  0.73395  0.06086  1.14486  0.080321  0.003553 -0.000912    22.609
   0.28921  0.71772  0.06368  1.14493  0.076826  0.003553 -0.000914    21.622
   0.30568  0.70148  0.06640  1.14501  0.073362  0.003553 -0.000915    20.647
   0.32214  0.68523  0.06902  1.14510  0.069929  0.003552 -0.000917    19.685
   0.33859  0.66898  0.07155  1.14521  0.066535  0.003551 -0.000920    18.736
   0.35503  0.65272  0.07398  1.14534  0.063179  0.003549 -0.000923    17.803
   0.37146  0.63645  0.07632  1.14549  0.059866  0.003545 -0.000926    16.885
   0.38788  0.62019  0.07855  1.14567  0.056598  0.003541 -0.000930    15.984
   0.40429  0.60392  0.08069  1.14589  0.053382  0.003535 -0.000935    15.101
   0.42068  0.58766  0.08272  1.14615  0.050215  0.003527 -0.000941    14.235
   0.43705  0.57140  0.08465  1.14647  0.047109  0.003518 -0.000948    13.391
   0.45341  0.55514  0.08647  1.14685  0.044061  0.003506 -0.000957    12.566
   0.46975  0.53889  0.08818  1.14732  0.041079  0.003492 -0.000967    11.763
   0.48606  0.52265  0.08978  1.14789  0.038164  0.003475 -0.000979    10.982
   0.50236  0.50642  0.09127  1.14858  0.035324  0.003455 -0.000994    10.225
   0.51863  0.49021  0.09264  1.14944  0.032563  0.003430 -0.001012     9.492
   0.53487  0.47402  0.09390  1.15049  0.029887  0.003402 -0.001035     8.785
   0.55108  0.45785  0.09503  1.15179  0.027297  0.003368 -0.001063     8.104
   0.56725  0.44172  0.09603  1.15340  0.024804  0.003329 -0.001099     7.450
   0.58335  0.42564  0.09690  1.15539  0.022415  0.003284 -0.001146     6.826
   0.59935  0.40965  0.09765  1.15787  0.020139  0.003231 -0.001206     6.232
   0.61519  0.39382  0.09824  1.16095  0.017982  0.003171 -0.001276     5.671
   0.63085  0.37817  0.09865  1.16479  0.016015  0.003102 -0.001306     5.163
   0.64639  0.36263  0.09885  1.16952  0.014240  0.003023 -0.001233     4.711
   0.66187  0.34716  0.09884  1.17525  0.012652  0.002934 -0.000941     4.311
   0.67728  0.33174  0.09863  1.18187  0.011249  0.002839 -0.000347     3.963
   0.69264  0.31639  0.09821  1.18950  0.010022  0.002734  0.000573     3.665
   0.70795  0.30109  0.09757  1.19814  0.008967  0.002621  0.001776     3.422
   0.72321  0.28586  0.09672  1.20753  0.008066  0.002501  0.003205     3.225
   0.73841  0.27069  0.09564  1.21723  0.007303  0.002380  0.004782     3.068
   0.75355  0.25561  0.09433  1.22676  0.006659  0.002261  0.006443     2.945
   0.76863  0.24061  0.09280  1.23573  0.006111  0.002147  0.008148     2.847
   0.78363  0.22571  0.09103  1.24381  0.005642  0.002037  0.009854     2.769
   0.79855  0.21092  0.08902  1.25077  0.005237  0.001934  0.011533     2.708
   0.81339  0.19626  0.08678  1.25653  0.004878  0.001835  0.013212     2.659
   0.82811  0.18175  0.08429  1.26093  0.004559  0.001741  0.014856     2.619
   0.84271  0.16741  0.08155  1.26398  0.004268  0.001650  0.016520     2.587
   0.85717  0.15327  0.07856  1.26555  0.004000  0.001563  0.018180     2.560
   0.87144  0.13937  0.07533  1.26564  0.003750  0.001477  0.019873     2.538
   0.88548  0.12576  0.07185  1.26419  0.003511  0.001394  0.021640     2.519
   0.89921  0.11254  0.06815  1.26107  0.003285  0.001312  0.023453     2.504
   0.91255  0.09978  0.06426  1.25630  0.003064  0.001231  0.025427     2.490
   0.92536  0.08762  0.06020  1.24968  0.002852  0.001151  0.027511     2.478
   0.93750  0.07622  0.05606  1.24121  0.002647  0.001073  0.029767     2.468
   0.94879  0.06572  0.05190  1.23086  0.002451  0.000997  0.032200     2.458
   0.95911  0.05625  0.04782  1.21871  0.002262  0.000924  0.034920     2.448
   0.96837  0.04786  0.04389  1.20461  0.002087  0.000856  0.037739     2.439
   0.97657  0.04055  0.04017  1.18881  0.001923  0.000792  0.040852     2.429
   0.98379  0.03423  0.03668  1.17110  0.001771  0.000732  0.044095     2.420
   0.99012  0.02879  0.03343  1.15151  0.001632  0.000677  0.047517     2.410
   0.99570  0.02411  0.03040  1.12980  0.001502  0.000626  0.051214     2.399
   1.00063  0.02008  0.02756  1.10549  0.001382  0.000579  0.055050     2.389
   1.00502  0.01660  0.02489  1.07811  0.001270  0.000535  0.059168     2.376
   1.00896  0.01357  0.02236  1.04691  0.001168  0.000494  0.063113     2.365
   1.01253  0.01095  0.01995  1.01140  0.001071  0.000456  0.067452     2.351
   1.01577  0.00867  0.01764  0.97011  0.000982  0.000420  0.071401     2.338
   1.01874  0.00671  0.01541  0.92208  0.000899  0.000387  0.075263     2.323
   1.02149  0.00502  0.01324  0.86564  0.000824  0.000357  0.078021     2.310
   1.02404  0.00360  0.01113  0.79948  0.000754  0.000328  0.079880     2.295
   1.02642  0.00242  0.00906  0.72160  0.000691  0.000303  0.079457     2.284
   1.02866  0.00148  0.00703  0.62948  0.000634  0.000280  0.077082     2.262
   1.03077  0.00077  0.00504  0.52263  0.000593  0.000262  0.068684     2.259
   1.03277  0.00029  0.00309  0.40194  0.000553  0.000247  0.057752     2.238
   1.03468  0.00004  0.00120  0.26904  0.000531  0.000237  0.040085     2.241
   1.03651  0.00001 -0.00064  0.12832  0.000506  0.000227  0.020302     2.230
   1.03838  0.00020 -0.00249 -0.02530  0.000506  0.000227  0.004000     2.230
   1.04030  0.00065 -0.00436 -0.18555  0.000502  0.000225  0.029560     2.229
   1.04230  0.00137 -0.00623 -0.34404  0.000521  0.000232  0.052389     2.239
   1.04439  0.00239 -0.00805 -0.48946  0.000553  0.000246  0.069613     2.248
   1.04657  0.00369 -0.00980 -0.61529  0.000601  0.000265  0.079147     2.266
   1.04888  0.00527 -0.01148 -0.71854  0.000665  0.000291  0.082161     2.285
   1.05132  0.00712 -0.01307 -0.80153  0.000738  0.000321  0.081069     2.304
   1.05393  0.00925 -0.01459 -0.86662  0.000826  0.000355  0.076602     2.328
   1.05675  0.01167 -0.01603 -0.91757  0.000922  0.000393  0.071284     2.347
   1.05979  0.01438 -0.01741 -0.95687  0.001032  0.000435  0.064850     2.372
   1.06312  0.01744 -0.01873 -0.98771  0.001149  0.000481  0.059083     2.390
   1.06679  0.02087 -0.02000 -1.01149  0.001280  0.000530  0.053033     2.413
   1.07086  0.02476 -0.02123 -1.03008  0.001420  0.000584  0.047779     2.432
   1.07542  0.02916 -0.02242 -1.04423  0.001577  0.000643  0.042651     2.454
   1.08058  0.03419 -0.02357 -1.05467  0.001750  0.000707  0.037946     2.476
   1.08647  0.03998 -0.02467 -1.06226  0.001939  0.000777  0.033786     2.495
   1.09325  0.04667 -0.02572 -1.06729  0.002151  0.000855  0.029924     2.516
   1.10108  0.05445 -0.02670 -1.07007  0.002387  0.000941  0.026424     2.537
   1.11013  0.06345 -0.02758 -1.07082  0.002650  0.001035  0.023256     2.559
   1.12048  0.07377 -0.02833 -1.06982  0.002938  0.001139  0.020457     2.580
   1.13215  0.08543 -0.02891 -1.06740  0.003249  0.001249  0.018027     2.601
   1.14504  0.09832 -0.02929 -1.06384  0.003580  0.001366  0.015921     2.622
   1.15896  0.11223 -0.02947 -1.05953  0.003922  0.001485  0.014153     2.641
   1.17368  0.12696 -0.02945 -1.05478  0.004268  0.001606  0.012675     2.659
   1.18901  0.14228 -0.02924 -1.04982  0.004616  0.001726  0.011436     2.675
   1.20480  0.15806 -0.02887 -1.04488  0.004957  0.001843  0.010425     2.689
   1.22092  0.17418 -0.02837 -1.04002  0.005293  0.001959  0.009563     2.702
   1.23731  0.19056 -0.02776 -1.03537  0.005618  0.002072  0.008860     2.712
   1.25391  0.20714 -0.02707 -1.03097  0.005931  0.002181  0.008277     2.719
   1.27067  0.22389 -0.02630 -1.02681  0.006235  0.002287  0.007779     2.726
   1.28758  0.24078 -0.02549 -1.02298  0.006520  0.002389  0.007384     2.729
   1.30460  0.25777 -0.02465 -1.01947  0.006790  0.002488  0.007062     2.729
   1.32169  0.27484 -0.02379 -1.01630  0.007043  0.002583  0.006807     2.727
   1.33881  0.29194 -0.02292 -1.01351  0.007273  0.002672  0.006620     2.721
   1.35590  0.30901 -0.02207 -1.01108  0.007483  0.002758  0.006481     2.714
   1.37294  0.32603 -0.02124 -1.00908  0.007667  0.002838  0.006407     2.702
   1.38994  0.34301 -0.02043 -1.00750  0.007825  0.002912  0.006381     2.687
   1.40689  0.35994 -0.01967 -1.00638  0.007955  0.002981  0.006410     2.669
   1.42382  0.37686 -0.01894 -1.00575  0.008056  0.003044  0.006494     2.647
   1.44075  0.39378 -0.01827 -1.00573  0.008119  0.003099  0.006651     2.620
   1.45775  0.41076 -0.01762 -1.00635  0.008147  0.003147  0.006872     2.589
   1.47481  0.42781 -0.01697 -1.00697  0.008211  0.003196  0.006978     2.569
   1.49192  0.44491 -0.01629 -1.00761  0.008295  0.003246  0.007016     2.555
   1.50907  0.46204 -0.01560 -1.00824  0.008392  0.003296  0.007010     2.546
   1.52625  0.47921 -0.01490 -1.00885  0.008500  0.003346  0.006971     2.540
   1.54344  0.49639 -0.01420 -1.00946  0.008609  0.003395  0.006921     2.536
   1.56064  0.51357 -0.01350 -1.01005  0.008723  0.003444  0.006859     2.533
   1.57783  0.53074 -0.01280 -1.01067  0.008833  0.003492  0.006800     2.530
   1.59499  0.54790 -0.01211 -1.01133  0.008939  0.003539  0.006746     2.526
   1.61214  0.56503 -0.01143 -1.01203  0.009041  0.003584  0.006700     2.523
   1.62928  0.58215 -0.01076 -1.01279  0.009137  0.003628  0.006665     2.519
   1.64639  0.59926 -0.01011 -1.01364  0.009223  0.003669  0.006644     2.514
   1.66350  0.61635 -0.00947 -1.01457  0.009302  0.003709  0.006635     2.508
   1.68058  0.63342 -0.00885 -1.01565  0.009369  0.003746  0.006646     2.501
   1.69766  0.65049 -0.00825 -1.01684  0.009427  0.003782  0.006668     2.493
   1.71473  0.66755 -0.00768 -1.01818  0.009474  0.003814  0.006709     2.484
   1.73178  0.68459 -0.00712 -1.01969  0.009508  0.003844  0.006767     2.474
   1.74883  0.70164 -0.00659 -1.02137  0.009533  0.003871  0.006840     2.462
   1.76588  0.71867 -0.00608 -1.02327  0.009543  0.003895  0.006936     2.450
   1.78292  0.73570 -0.00560 -1.02538  0.009542  0.003916  0.007047     2.437
   1.79995  0.75273 -0.00514 -1.02774  0.009528  0.003934  0.007180     2.422
   1.81698  0.76976 -0.00471 -1.03036  0.009501  0.003948  0.007332     2.406
   1.83401  0.78678 -0.00431 -1.03329  0.009459  0.003958  0.007510     2.390
   1.85104  0.80381 -0.00393 -1.03654  0.009403  0.003964  0.007713     2.372
   1.86807  0.82084 -0.00357 -1.04018  0.009330  0.003965  0.007949     2.353
   1.88510  0.83786 -0.00324 -1.04423  0.009241  0.003962  0.008213     2.333
   1.90213  0.85489 -0.00294 -1.04881  0.009132  0.003952  0.008525     2.311
   1.91914  0.87190 -0.00266 -1.05392  0.009005  0.003936  0.008876     2.288
   1.93613  0.88889 -0.00241 -1.05971  0.008855  0.003913  0.009288     2.263
   1.95305  0.90581 -0.00218 -1.06631  0.008678  0.003882  0.009775     2.236
   1.96983  0.92258 -0.00197 -1.07386  0.008472  0.003841  0.010353     2.206
   1.98627  0.93902 -0.00179 -1.08254  0.008233  0.003788  0.011050     2.173
   2.00209  0.95483 -0.00163 -1.09249  0.007956  0.003722  0.011901     2.138
   2.01678  0.96953 -0.00150 -1.10374  0.007644  0.003642  0.012926     2.099
   2.02984  0.98258 -0.00139 -1.11637  0.007294  0.003547  0.014187     2.056
   2.04093  0.99368 -0.00131 -1.12995  0.006927  0.003442  0.015654     2.012
   2.04725  1.00000 -0.00126 -1.14401  0.006487  0.003316  0.017669     1.956
   2.04725  1.00010 -0.00001  1.14401  0.147796  0.006862  0.000000    21.538
   2.05356  1.00636 -0.00081  1.14115  0.147535  0.007267  0.000000    20.301
   2.06096  1.01371 -0.00160  1.13749  0.146978  0.007789  0.000000    18.869
   2.06964  1.02235 -0.00246  1.13314  0.146202  0.008414  0.000000    17.376
   2.07981  1.03248 -0.00339  1.12795  0.145155  0.009165  0.000000    15.838
   2.09174  1.04437 -0.00439  1.12173  0.143772  0.010072  0.000000    14.275
   2.10574  1.05832 -0.00546  1.11432  0.141957  0.011160  0.000000    12.720
   2.12215  1.07469 -0.00661  1.10548  0.139595  0.012472  0.000000    11.193
   2.14139  1.09390 -0.00783  1.09492  0.136543  0.014057  0.000000     9.714
   2.16396  1.11643 -0.00910  1.08222  0.132623  0.015983  0.000000     8.298
   2.19042  1.14286 -0.01042  1.06684  0.127626  0.018344  0.000000     6.957
   2.22145  1.17386 -0.01176  1.04817  0.121306  0.021251  0.000000     5.708
   2.25784  1.21023 -0.01308  1.02455  0.113481  0.024997  0.000000     4.540
   2.30052  1.25289 -0.01433  0.99514  0.103995  0.029784  0.000000     3.492
   2.35057  1.30292 -0.01546  0.96950  0.092629  0.034031  0.000000     2.722
   2.40926  1.36161 -0.01639  0.95130  0.080208  0.037021  0.000000     2.167
   2.47809  1.43043 -0.01702  0.94330  0.068085  0.038284  0.000000     1.778
   2.55880  1.51114 -0.01722  0.94490  0.057645  0.038048  0.000000     1.515
   2.65345  1.60579 -0.01683  0.95250  0.049610  0.037019  0.000000     1.340
   2.76445  1.71678 -0.01567  0.96197  0.043880  0.035836  0.000000     1.224
   2.89461  1.84693 -0.01352  0.97086  0.039939  0.034801  0.000000     1.148
   3.04725  1.99953 -0.01009  0.98489  0.036431  0.033276  0.000000     1.095
