#    s        x        y     Ue/Vinf    Dstar     Theta      Cf       H
   0.00000  1.00000  0.00126  1.19388  0.243972  0.007646 -0.000314    31.908
   0.00630  0.99392  0.00292  1.19613  0.241944  0.007161 -0.000315    33.787
   0.01727  0.98333  0.00577  1.20040  0.238326  0.006256 -0.000317    38.097
   0.03004  0.97098  0.00904  1.20617  0.233899  0.005063 -0.000320    46.197
   0.04430  0.95718  0.01262  1.21469  0.228541  0.003335 -0.000325    68.530
   0.05958  0.94237  0.01638  1.21800  0.223805  0.002708 -0.001246    82.655
   0.07546  0.92696  0.02021  1.21810  0.219376  0.002696 -0.001251    81.372
   0.09164  0.91123  0.02403  1.21819  0.214770  0.002685 -0.001257    79.983
   0.10799  0.89533  0.02780  1.21829  0.210048  0.002675 -0.001261    78.511
   0.12441  0.87933  0.03149  1.21838  0.205246  0.002667 -0.001266    76.971
   0.14087  0.86327  0.03511  1.21846  0.200388  0.002659 -0.001270    75.376
   0.15734  0.84718  0.03864  1.21855  0.195483  0.002651 -0.001274    73.730
   0.17383  0.83106  0.04208  1.21863  0.190544  0.002645 -0.001277    72.041
   0.19032  0.81492  0.04544  1.21871  0.185576  0.002639 -0.001280    70.311
   0.20680  0.79875  0.04870  1.21879  0.180585  0.002634 -0.001283    68.547
   0.22329  0.78258  0.05188  1.21887  0.175575  0.002630 -0.001285    66.750
   0.23978  0.76638  0.05496  1.21894  0.170548  0.002627 -0.001287    64.922
   0.25626  0.75017  0.05796  1.21901  0.165512  0.002624 -0.001289    63.069
   0.27274  0.73395  0.06086  1.21907  0.160469  0.002622 -0.001291    61.193
   0.28921  0.71772  0.06368  1.21914  0.155420  0.002621 -0.001292    59.297
   0.30568  0.70148  0.06640  1.21920  0.150370  0.002620 -0.001293    57.384
   0.32214  0.68523  0.06902  1.21925  0.145319  0.002620 -0.001293    55.455
   0.33859  0.66898  0.07155  1.21931  0.140274  0.002621 -0.001293    53.516
   0.35503  0.65272  0.07398  1.21935  0.135235  0.002622 -0.001293    51.567
   0.37146  0.63645  0.07632  1.21940  0.130206  0.002624 -0.001293    49.613
   0.38788  0.62019  0.07855  1.21944  0.125187  0.002627 -0.001293    47.654
   0.40429  0.60392  0.08069  1.21948  0.120184  0.002630 -0.001292    45.697
   0.42068  0.58766  0.08272  1.21952  0.115198  0.002634 -0.001291    43.741
   0.43705  0.57140  0.08465  1.21955  0.110234  0.002638 -0.001290    41.791
   0.45341  0.55514  0.08647  1.21957  0.105290  0.002642 -0.001289    39.848
   0.46975  0.53889  0.08818  1.21960  0.100373  0.002647 -0.001287    37.916
   0.48606  0.52265  0.08978  1.21962  0.095486  0.002653 -0.001286    35.998
   0.50236  0.50642  0.09127  1.21964  0.090629  0.002658 -0.001285    34.096
   0.51863  0.49021  0.09264  1.21966  0.085809  0.002664 -0.001283    32.213
   0.53487  0.47402  0.09390  1.21967  0.081028  0.002670 -0.001282    30.352
   0.55108  0.45785  0.09503  1.21969  0.076288  0.002676 -0.001282    28.513
   0.56725  0.44172  0.09603  1.21971  0.071598  0.002681 -0.001281    26.703
   0.58335  0.42564  0.09690  1.21973  0.066962  0.002687 -0.001281    24.923
   0.59935  0.40965  0.09765  1.21976  0.062396  0.002692 -0.001282    23.180
   0.61519  0.39382  0.09824  1.21980  0.057907  0.002696 -0.001283    21.476
   0.63085  0.37817  0.09865  1.21988  0.053573  0.002699 -0.001285    19.846
   0.64639  0.36263  0.09885  1.22000  0.049387  0.002700 -0.001290    18.289
   0.66187  0.34716  0.09884  1.22019  0.045347  0.002699 -0.001296    16.801
   0.67728  0.33174  0.09863  1.22046  0.041456  0.002695 -0.001305    15.384
   0.69264  0.31639  0.09821  1.22086  0.037720  0.002687 -0.001317    14.038
   0.70795  0.30109  0.09757  1.22141  0.034145  0.002675 -0.001333    12.763
   0.72321  0.28586  0.09672  1.22217  0.030739  0.002659 -0.001355    11.562
   0.73841  0.27069  0.09564  1.22321  0.027508  0.002636 -0.001383    10.435
   0.75355  0.25561  0.09433  1.22462  0.024464  0.002607 -0.001421     9.383
   0.76863  0.24061  0.09280  1.22653  0.021611  0.002571 -0.001472     8.407
   0.78363  0.22571  0.09103  1.22910  0.018963  0.002525 -0.001541     7.510
   0.79855  0.21092  0.08902  1.23254  0.016525  0.002469 -0.001636     6.692
   0.81339  0.19626  0.08678  1.23712  0.014309  0.002402 -0.001765     5.956
   0.82811  0.18175  0.08429  1.24320  0.012322  0.002323 -0.001871     5.305
   0.84271  0.16741  0.08155  1.25115  0.010563  0.002230 -0.001807     4.738
   0.85717  0.15327  0.07856  1.26122  0.009042  0.002123 -0.001292     4.258
   0.87144  0.13937  0.07533  1.27333  0.007745  0.002007 -0.000121     3.858
   0.88548  0.12576  0.07185  1.28760  0.006663  0.001881  0.001712     3.543
   0.89921  0.11254  0.06815  1.30363  0.005773  0.001748  0.004068     3.303
   0.91255  0.09978  0.06426  1.32060  0.005042  0.001614  0.006800     3.125
   0.92536  0.08762  0.06020  1.33759  0.004444  0.001484  0.009736     2.995
   0.93750  0.07622  0.05606  1.35391  0.003946  0.001361  0.012830     2.899
   0.94879  0.06572  0.05190  1.36908  0.003526  0.001247  0.016029     2.829
   0.95911  0.05625  0.04782  1.38284  0.003168  0.001141  0.019337     2.776
   0.96837  0.04786  0.04389  1.39515  0.002854  0.001045  0.022894     2.733
   0.97657  0.04055  0.04017  1.40581  0.002583  0.000957  0.026603     2.698
   0.98379  0.03423  0.03668  1.41498  0.002340  0.000877  0.030679     2.668
   0.99012  0.02879  0.03343  1.42255  0.002124  0.000805  0.035157     2.639
   0.99570  0.02411  0.03040  1.42839  0.001930  0.000739  0.040053     2.613
   1.00063  0.02008  0.02756  1.43243  0.001754  0.000678  0.045513     2.587
   1.00502  0.01660  0.02489  1.43444  0.001592  0.000622  0.051815     2.560
   1.00896  0.01357  0.02236  1.43377  0.001446  0.000570  0.058610     2.535
   1.01253  0.01095  0.01995  1.43021  0.001308  0.000522  0.066635     2.506
   1.01577  0.00867  0.01764  1.42254  0.001184  0.000478  0.075378     2.479
   1.01874  0.00671  0.01541  1.40994  0.001069  0.000436  0.085261     2.450
   1.02149  0.00502  0.01324  1.39083  0.000965  0.000398  0.095897     2.422
   1.02404  0.00360  0.01113  1.36354  0.000869  0.000363  0.107405     2.393
   1.02642  0.00242  0.00906  1.32544  0.000783  0.000332  0.119586     2.362
   1.02866  0.00148  0.00703  1.27359  0.000710  0.000304  0.129956     2.336
   1.03077  0.00077  0.00504  1.20610  0.000647  0.000280  0.138995     2.306
   1.03277  0.00029  0.00309  1.12076  0.000598  0.000261  0.142514     2.286
   1.03468  0.00004  0.00120  1.01889  0.000559  0.000246  0.140980     2.267
   1.03651  0.00001 -0.00064  0.90153  0.000530  0.000235  0.133490     2.251
   1.03838  0.00020 -0.00249  0.76382  0.000510  0.000228  0.118828     2.238
   1.04030  0.00065 -0.00436  0.60839  0.000502  0.000225  0.096618     2.233
   1.04230  0.00137 -0.00623  0.44015  0.000502  0.000226  0.070703     2.221
   1.04439  0.00239 -0.00805  0.26855  0.000531  0.000240  0.041064     2.213
   1.04657  0.00369 -0.00980  0.11332  0.000578  0.000259  0.015686     2.230
   1.04888  0.00527 -0.01148 -0.03211  0.000578  0.000259  0.004442     2.230
   1.05132  0.00712 -0.01307 -0.15952  0.000670  0.000298  0.018763     2.246
   1.05393  0.00925 -0.01459 -0.26448  0.000738  0.000328  0.028219     2.247
   1.05675  0.01167 -0.01603 -0.35583  0.000808  0.000358  0.034230     2.260
   1.05979  0.01438 -0.01741 -0.43368  0.000893  0.000393  0.037246     2.275
   1.06312  0.01744 -0.01873 -0.49972  0.000989  0.000432  0.038292     2.289
   1.06679  0.02087 -0.02000 -0.55684  0.001089  0.000474  0.038384     2.298
   1.07086  0.02476 -0.02123 -0.60643  0.001202  0.000520  0.037375     2.313
   1.07542  0.02916 -0.02242 -0.64981  0.001324  0.000569  0.035968     2.324
   1.08058  0.03419 -0.02357 -0.68790  0.001460  0.000624  0.034072     2.338
   1.08647  0.03998 -0.02467 -0.72167  0.001608  0.000684  0.032077     2.350
   1.09325  0.04667 -0.02572 -0.75166  0.001774  0.000751  0.029908     2.363
   1.10108  0.05445 -0.02670 -0.77814  0.001959  0.000824  0.027655     2.377
   1.11013  0.06345 -0.02758 -0.80113  0.002167  0.000906  0.025359     2.392
   1.12048  0.07377 -0.02833 -0.82114  0.002389  0.000994  0.023294     2.404
   1.13215  0.08543 -0.02891 -0.83813  0.002632  0.001089  0.021291     2.417
   1.14504  0.09832 -0.02929 -0.85221  0.002889  0.001189  0.019459     2.431
   1.15896  0.11223 -0.02947 -0.86370  0.003154  0.001291  0.017841     2.443
   1.17368  0.12696 -0.02945 -0.87299  0.003421  0.001394  0.016436     2.454
   1.18901  0.14228 -0.02924 -0.88046  0.003689  0.001497  0.015211     2.464
   1.20480  0.15806 -0.02887 -0.88652  0.003952  0.001598  0.014168     2.473
   1.22092  0.17418 -0.02837 -0.89142  0.004211  0.001697  0.013254     2.481
   1.23731  0.19056 -0.02776 -0.89552  0.004460  0.001793  0.012490     2.487
   1.25391  0.20714 -0.02707 -0.89900  0.004702  0.001887  0.011832     2.492
   1.27067  0.22389 -0.02630 -0.90201  0.004935  0.001977  0.011263     2.496
   1.28758  0.24078 -0.02549 -0.90470  0.005157  0.002064  0.010782     2.498
   1.30460  0.25777 -0.02465 -0.90719  0.005368  0.002148  0.010378     2.499
   1.32169  0.27484 -0.02379 -0.90955  0.005567  0.002228  0.010038     2.499
   1.33881  0.29194 -0.02292 -0.91193  0.005748  0.002303  0.009780     2.496
   1.35590  0.30901 -0.02207 -0.91432  0.005918  0.002375  0.009565     2.492
   1.37294  0.32603 -0.02124 -0.91684  0.006069  0.002442  0.009416     2.485
   1.38994  0.34301 -0.02043 -0.91954  0.006201  0.002504  0.009324     2.477
   1.40689  0.35994 -0.01967 -0.92254  0.006312  0.002560  0.009298     2.466
   1.42382  0.37686 -0.01894 -0.92588  0.006402  0.002610  0.009329     2.452
   1.44075  0.39378 -0.01827 -0.92978  0.006461  0.002654  0.009453     2.435
   1.45775  0.41076 -0.01762 -0.93434  0.006492  0.002689  0.009658     2.414
   1.47481  0.42781 -0.01697 -0.93870  0.006558  0.002728  0.009702     2.404
   1.49192  0.44491 -0.01629 -0.94288  0.006641  0.002768  0.009667     2.399
   1.50907  0.46204 -0.01560 -0.94683  0.006738  0.002809  0.009574     2.399
   1.52625  0.47921 -0.01490 -0.95061  0.006838  0.002850  0.009467     2.399
   1.54344  0.49639 -0.01420 -0.95424  0.006940  0.002891  0.009354     2.400
   1.56064  0.51357 -0.01350 -0.95772  0.007041  0.002932  0.009241     2.401
   1.57783  0.53074 -0.01280 -0.96112  0.007138  0.002972  0.009143     2.402
   1.59499  0.54790 -0.01211 -0.96450  0.007228  0.003010  0.009066     2.401
   1.61214  0.56503 -0.01143 -0.96785  0.007312  0.003047  0.009006     2.400
   1.62928  0.58215 -0.01076 -0.97119  0.007391  0.003082  0.008958     2.398
   1.64639  0.59926 -0.01011 -0.97461  0.007459  0.003115  0.008940     2.394
   1.66350  0.61635 -0.00947 -0.97808  0.007521  0.003146  0.008935     2.390
   1.68058  0.63342 -0.00885 -0.98168  0.007571  0.003175  0.008959     2.385
   1.69766  0.65049 -0.00825 -0.98539  0.007615  0.003202  0.008992     2.378
   1.71473  0.66755 -0.00768 -0.98925  0.007649  0.003226  0.009053     2.371
   1.73178  0.68459 -0.00712 -0.99330  0.007672  0.003247  0.009136     2.363
   1.74883  0.70164 -0.00659 -0.99752  0.007688  0.003266  0.009238     2.354
   1.76588  0.71867 -0.00608 -1.00200  0.007691  0.003281  0.009367     2.344
   1.78292  0.73570 -0.00560 -1.00672  0.007687  0.003294  0.009512     2.334
   1.79995  0.75273 -0.00514 -1.01173  0.007670  0.003303  0.009686     2.322
   1.81698  0.76976 -0.00471 -1.01704  0.007645  0.003310  0.009881     2.310
   1.83401  0.78678 -0.00431 -1.02274  0.007607  0.003312  0.010112     2.297
   1.85104  0.80381 -0.00393 -1.02881  0.007559  0.003311  0.010367     2.283
   1.86807  0.82084 -0.00357 -1.03538  0.007495  0.003305  0.010669     2.268
   1.88510  0.83786 -0.00324 -1.04245  0.007420  0.003295  0.011007     2.252
   1.90213  0.85489 -0.00294 -1.05018  0.007328  0.003279  0.011407     2.235
   1.91914  0.87190 -0.00266 -1.05860  0.007221  0.003257  0.011861     2.217
   1.93613  0.88889 -0.00241 -1.06785  0.007096  0.003230  0.012388     2.197
   1.95305  0.90581 -0.00218 -1.07819  0.006946  0.003194  0.013028     2.175
   1.96983  0.92258 -0.00197 -1.08973  0.006772  0.003149  0.013790     2.151
   1.98627  0.93902 -0.00179 -1.10274  0.006569  0.003093  0.014722     2.124
   2.00209  0.95483 -0.00163 -1.11745  0.006330  0.003025  0.015884     2.093
   2.01678  0.96953 -0.00150 -1.13388  0.006058  0.002943  0.017315     2.058
   2.02984  0.98258 -0.00139 -1.15233  0.005743  0.002846  0.019173     2.018
   2.04093  0.99368 -0.00131 -1.17237  0.005404  0.002737  0.021442     1.974
   2.04725  1.00000 -0.00126 -1.19388  0.004958  0.002598  0.025011     1.908
   2.04725  1.00010 -0.00001  1.19388  0.251404  0.010244  0.000000    24.541
   2.05356  1.00636 -0.00079  1.19151  0.251592  0.010784  0.000000    23.330
   2.06096  1.01372 -0.00154  1.18859  0.251574  0.011458  0.000000    21.957
   2.06964  1.02236 -0.00230  1.18516  0.251444  0.012253  0.000000    20.521
   2.07981  1.03251 -0.00309  1.18115  0.251158  0.013193  0.000000    19.037
   2.09174  1.04441 -0.00389  1.17645  0.250669  0.014304  0.000000    17.524
   2.10574  1.05838 -0.00469  1.17094  0.249908  0.015619  0.000000    16.000
   2.12215  1.07477 -0.00548  1.16450  0.248786  0.017178  0.000000    14.483
   2.14139  1.09400 -0.00621  1.15708  0.247164  0.018997  0.000000    13.011
   2.16396  1.11656 -0.00684  1.14836  0.244914  0.021166  0.000000    11.571
   2.19042  1.14302 -0.00733  1.13810  0.241845  0.023759  0.000000    10.179
   2.22145  1.17405 -0.00759  1.12597  0.237719  0.026877  0.000000     8.845
   2.25784  1.21044 -0.00754  1.11158  0.232240  0.030650  0.000000     7.577
   2.30052  1.25312 -0.00703  1.09436  0.225052  0.035262  0.000000     6.382
   2.35057  1.30315 -0.00593  1.07350  0.215760  0.040992  0.000000     5.263
   2.40926  1.36181 -0.00404  1.04741  0.204033  0.048385  0.000000     4.217
   2.47809  1.43058 -0.00112  1.01422  0.189696  0.058206  0.000000     3.259
   2.55880  1.51118  0.00313  0.98666  0.171858  0.066654  0.000000     2.578
   2.65345  1.60564  0.00906  0.96777  0.151756  0.072480  0.000000     2.094
   2.76445  1.71635  0.01710  0.95935  0.131160  0.075008  0.000000     1.749
   2.89461  1.84607  0.02778  0.96210  0.111595  0.074231  0.000000     1.503
   3.04725  1.99808  0.04170  1.00781  0.081850  0.063402  0.000000     1.291
