#    s        x        y     Ue/Vinf    Dstar     Theta      Cf       H
   0.00000  1.00000  0.00126  1.12271  0.116199  0.003824 -0.000277    30.386
   0.00630  0.99392  0.00292  1.12274  0.115109  0.003822 -0.000825    30.116
   0.01727  0.98333  0.00577  1.12280  0.113126  0.003820 -0.000826    29.616
   0.03004  0.97098  0.00904  1.12286  0.110739  0.003818 -0.000826    29.004
   0.04430  0.95718  0.01262  1.12291  0.108019  0.003817 -0.000827    28.302
   0.05958  0.94237  0.01638  1.12297  0.105064  0.003816 -0.000828    27.534
   0.07546  0.92696  0.02021  1.12303  0.101960  0.003815 -0.000829    26.724
   0.09164  0.91123  0.02403  1.12309  0.098774  0.003815 -0.000830    25.891
   0.10799  0.89533  0.02780  1.12314  0.095545  0.003815 -0.000831    25.045
   0.12441  0.87933  0.03149  1.12320  0.092294  0.003815 -0.000832    24.192
   0.14087  0.86327  0.03511  1.12327  0.089038  0.003815 -0.000833    23.340
   0.15734  0.84718  0.03864  1.12333  0.085786  0.003815 -0.000834    22.488
   0.17383  0.83106  0.04208  1.12341  0.082543  0.003814 -0.000835    21.641
   0.19032  0.81492  0.04544  1.12349  0.079316  0.003813 -0.000836    20.799
   0.20680  0.79875  0.04870  1.12357  0.076110  0.003812 -0.000838    19.965
   0.22329  0.78258  0.05188  1.12367  0.072925  0.003810 -0.000840    19.138
   0.23978  0.76638  0.05496  1.12379  0.069768  0.003808 -0.000842    18.321
   0.25626  0.75017  0.05796  1.12391  0.066641  0.003805 -0.000845    17.515
   0.27274  0.73395  0.06086  1.12406  0.063549  0.003801 -0.000848    16.720
   0.28921  0.71772  0.06368  1.12423  0.060494  0.003796 -0.000852    15.938
   0.30568  0.70148  0.06640  1.12444  0.057480  0.003789 -0.000856    15.169
   0.32214  0.68523  0.06902  1.12467  0.054508  0.003782 -0.000861    14.414
   0.33859  0.66898  0.07155  1.12495  0.051586  0.003772 -0.000866    13.674
   0.35503  0.65272  0.07398  1.12527  0.048712  0.003761 -0.000873    12.950
   0.37146  0.63645  0.07632  1.12565  0.045893  0.003748 -0.000880    12.243
   0.38788  0.62019  0.07855  1.12611  0.043130  0.003733 -0.000889    11.553
   0.40429  0.60392  0.08069  1.12665  0.040429  0.003715 -0.000900    10.882
   0.42068  0.58766  0.08272  1.12729  0.037792  0.003695 -0.000912    10.229
   0.43705  0.57140  0.08465  1.12806  0.035226  0.003671 -0.000927     9.597
   0.45341  0.55514  0.08647  1.12898  0.032731  0.003643 -0.000944     8.984
   0.46975  0.53889  0.08818  1.13007  0.030315  0.003612 -0.000966     8.394
   0.48606  0.52265  0.08978  1.13139  0.027978  0.003576 -0.000991     7.825
   0.50236  0.50642  0.09127  1.13297  0.025729  0.003535 -0.001023     7.279
   0.51863  0.49021  0.09264  1.13487  0.023572  0.003488 -0.001063     6.758
   0.53487  0.47402  0.09390  1.13716  0.021511  0.003436 -0.001112     6.261
   0.55108  0.45785  0.09503  1.13993  0.019548  0.003376 -0.001169     5.790
   0.56725  0.44172  0.09603  1.14327  0.017692  0.003310 -0.001208     5.346
   0.58335  0.42564  0.09690  1.14730  0.015944  0.003235 -0.001201     4.929
   0.59935  0.40965  0.09765  1.15212  0.014312  0.003152 -0.001068     4.541
   0.61519  0.39382  0.09824  1.15772  0.012793  0.003061 -0.000712     4.179
   0.63085  0.37817  0.09865  1.16406  0.011450  0.002965 -0.000085     3.862
   0.64639  0.36263  0.09885  1.17128  0.010279  0.002860  0.000808     3.595
   0.66187  0.34716  0.09884  1.17933  0.009265  0.002747  0.001931     3.373
   0.67728  0.33174  0.09863  1.18795  0.008396  0.002629  0.003226     3.193
   0.69264  0.31639  0.09821  1.19676  0.007653  0.002511  0.004643     3.048
   0.70795  0.30109  0.09757  1.20536  0.007022  0.002395  0.006119     2.932
   0.72321  0.28586  0.09672  1.21343  0.006481  0.002283  0.007625     2.839
   0.73841  0.27069  0.09564  1.22069  0.006014  0.002176  0.009135     2.764
   0.75355  0.25561  0.09433  1.22695  0.005610  0.002075  0.010619     2.704
   0.76863  0.24061  0.09280  1.23210  0.005252  0.001979  0.012093     2.654
   0.78363  0.22571  0.09103  1.23601  0.004934  0.001887  0.013530     2.615
   0.79855  0.21092  0.08902  1.23868  0.004645  0.001800  0.014961     2.581
   0.81339  0.19626  0.08678  1.24003  0.004379  0.001715  0.016396     2.553
   0.82811  0.18175  0.08429  1.23996  0.004134  0.001634  0.017803     2.531
   0.84271  0.16741  0.08155  1.23851  0.003902  0.001554  0.019257     2.510
   0.85717  0.15327  0.07856  1.23553  0.003681  0.001476  0.020741     2.493
   0.87144  0.13937  0.07533  1.23094  0.003468  0.001399  0.022275     2.479
   0.88548  0.12576  0.07185  1.22462  0.003263  0.001323  0.023869     2.466
   0.89921  0.11254  0.06815  1.21646  0.003063  0.001248  0.025553     2.455
   0.91255  0.09978  0.06426  1.20634  0.002866  0.001173  0.027375     2.444
   0.92536  0.08762  0.06020  1.19406  0.002674  0.001098  0.029313     2.435
   0.93750  0.07622  0.05606  1.17959  0.002486  0.001025  0.031449     2.426
   0.94879  0.06572  0.05190  1.16280  0.002306  0.000953  0.033681     2.418
   0.95911  0.05625  0.04782  1.14390  0.002131  0.000884  0.036169     2.410
   0.96837  0.04786  0.04389  1.12277  0.001967  0.000819  0.038790     2.401
   0.97657  0.04055  0.04017  1.09953  0.001815  0.000759  0.041540     2.392
   0.98379  0.03423  0.03668  1.07420  0.001674  0.000702  0.044382     2.384
   0.99012  0.02879  0.03343  1.04669  0.001543  0.000650  0.047337     2.375
   0.99570  0.02411  0.03040  1.01669  0.001422  0.000601  0.050369     2.365
   1.00063  0.02008  0.02756  0.98384  0.001311  0.000556  0.053303     2.356
   1.00502  0.01660  0.02489  0.94762  0.001205  0.000514  0.056635     2.342
   1.00896  0.01357  0.02236  0.90691  0.001112  0.000476  0.059066     2.336
   1.01253  0.01095  0.01995  0.86170  0.001019  0.000439  0.062173     2.320
   1.01577  0.00867  0.01764  0.80981  0.000939  0.000406  0.063944     2.312
   1.01874  0.00671  0.01541  0.75104  0.000860  0.000374  0.065545     2.298
   1.02149  0.00502  0.01324  0.68305  0.000790  0.000346  0.065652     2.286
   1.02404  0.00360  0.01113  0.60457  0.000726  0.000319  0.064001     2.273
   1.02642  0.00242  0.00906  0.51413  0.000669  0.000296  0.059587     2.263
   1.02866  0.00148  0.00703  0.41088  0.000618  0.000274  0.051990     2.255
   1.03077  0.00077  0.00504  0.29239  0.000574  0.000257  0.040439     2.237
   1.03277  0.00029  0.00309  0.16152  0.000549  0.000246  0.023428     2.235
   1.03468  0.00004  0.00120  0.02029  0.000508  0.000228  0.003190     2.230
   1.03651  0.00001 -0.00064 -0.12901  0.000508  0.000228  0.020295     2.230
   1.03838  0.00020 -0.00249 -0.28380  0.000502  0.000225  0.045358     2.227
   1.04030  0.00065 -0.00436 -0.44508  0.000502  0.000225  0.070746     2.231
   1.04230  0.00137 -0.00623 -0.59775  0.000528  0.000234  0.088925     2.251
   1.04439  0.00239 -0.00805 -0.73416  0.000561  0.000249  0.101874     2.258
   1.04657  0.00369 -0.00980 -0.84804  0.000617  0.000270  0.104375     2.287
   1.04888  0.00527 -0.01148 -0.93737  0.000686  0.000297  0.101560     2.309
   1.05132  0.00712 -0.01307 -1.00564  0.000769  0.000329  0.094766     2.336
   1.05393  0.00925 -0.01459 -1.05669  0.000864  0.000366  0.086416     2.362
   1.05675  0.01167 -0.01603 -1.09424  0.000971  0.000406  0.077516     2.389
   1.05979  0.01438 -0.01741 -1.12135  0.001090  0.000451  0.068842     2.417
   1.06312  0.01744 -0.01873 -1.14037  0.001222  0.000500  0.060678     2.445
   1.06679  0.02087 -0.02000 -1.15332  0.001366  0.000553  0.053399     2.472
   1.07086  0.02476 -0.02123 -1.16179  0.001522  0.000610  0.047008     2.497
   1.07542  0.02916 -0.02242 -1.16643  0.001697  0.000672  0.041096     2.524
   1.08058  0.03419 -0.02357 -1.16807  0.001889  0.000740  0.035913     2.551
   1.08647  0.03998 -0.02467 -1.16733  0.002100  0.000815  0.031378     2.576
   1.09325  0.04667 -0.02572 -1.16442  0.002338  0.000898  0.027258     2.603
   1.10108  0.05445 -0.02670 -1.15971  0.002602  0.000989  0.023649     2.630
   1.11013  0.06345 -0.02758 -1.15334  0.002898  0.001090  0.020405     2.659
   1.12048  0.07377 -0.02833 -1.14575  0.003222  0.001200  0.017644     2.686
   1.13215  0.08543 -0.02891 -1.13724  0.003574  0.001317  0.015266     2.713
   1.14504  0.09832 -0.02929 -1.12816  0.003949  0.001441  0.013242     2.741
   1.15896  0.11223 -0.02947 -1.11898  0.004335  0.001568  0.011598     2.765
   1.17368  0.12696 -0.02945 -1.10990  0.004730  0.001696  0.010213     2.789
   1.18901  0.14228 -0.02924 -1.10117  0.005123  0.001823  0.009096     2.811
   1.20480  0.15806 -0.02887 -1.09288  0.005512  0.001948  0.008178     2.829
   1.22092  0.17418 -0.02837 -1.08507  0.005895  0.002071  0.007415     2.847
   1.23731  0.19056 -0.02776 -1.07778  0.006265  0.002190  0.006800     2.860
   1.25391  0.20714 -0.02707 -1.07101  0.006620  0.002306  0.006301     2.871
   1.27067  0.22389 -0.02630 -1.06473  0.006963  0.002419  0.005890     2.879
   1.28758  0.24078 -0.02549 -1.05893  0.007287  0.002527  0.005561     2.883
   1.30460  0.25777 -0.02465 -1.05362  0.007590  0.002632  0.005309     2.884
   1.32169  0.27484 -0.02379 -1.04877  0.007873  0.002733  0.005115     2.881
   1.33881  0.29194 -0.02292 -1.04442  0.008128  0.002829  0.004989     2.873
   1.35590  0.30901 -0.02207 -1.04050  0.008361  0.002920  0.004900     2.863
   1.37294  0.32603 -0.02124 -1.03708  0.008562  0.003006  0.004871     2.848
   1.38994  0.34301 -0.02043 -1.03413  0.008732  0.003087  0.004890     2.829
   1.40689  0.35994 -0.01967 -1.03168  0.008870  0.003162  0.004957     2.805
   1.42382  0.37686 -0.01894 -1.02974  0.008974  0.003231  0.005071     2.778
   1.44075  0.39378 -0.01827 -1.02838  0.009036  0.003292  0.005249     2.745
   1.45775  0.41076 -0.01762 -1.02762  0.009062  0.003347  0.005480     2.708
   1.47481  0.42781 -0.01697 -1.02697  0.009121  0.003402  0.005620     2.681
   1.49192  0.44491 -0.01629 -1.02641  0.009201  0.003457  0.005701     2.662
   1.50907  0.46204 -0.01560 -1.02592  0.009294  0.003511  0.005740     2.647
   1.52625  0.47921 -0.01490 -1.02547  0.009398  0.003565  0.005748     2.636
   1.54344  0.49639 -0.01420 -1.02508  0.009506  0.003618  0.005739     2.627
   1.56064  0.51357 -0.01350 -1.02472  0.009620  0.003671  0.005714     2.620
   1.57783  0.53074 -0.01280 -1.02443  0.009731  0.003723  0.005689     2.614
   1.59499  0.54790 -0.01211 -1.02422  0.009839  0.003773  0.005666     2.608
   1.61214  0.56503 -0.01143 -1.02407  0.009943  0.003821  0.005645     2.602
   1.62928  0.58215 -0.01076 -1.02401  0.010042  0.003869  0.005629     2.596
   1.64639  0.59926 -0.01011 -1.02404  0.010132  0.003914  0.005624     2.589
   1.66350  0.61635 -0.00947 -1.02418  0.010214  0.003957  0.005628     2.581
   1.68058  0.63342 -0.00885 -1.02446  0.010285  0.003998  0.005646     2.572
   1.69766  0.65049 -0.00825 -1.02485  0.010346  0.004037  0.005675     2.563
   1.71473  0.66755 -0.00768 -1.02540  0.010396  0.004074  0.005719     2.552
   1.73178  0.68459 -0.00712 -1.02611  0.010434  0.004107  0.005776     2.540
   1.74883  0.70164 -0.00659 -1.02698  0.010461  0.004139  0.005847     2.528
   1.76588  0.71867 -0.00608 -1.02805  0.010473  0.004166  0.005936     2.514
   1.78292  0.73570 -0.00560 -1.02932  0.010473  0.004191  0.006039     2.499
   1.79995  0.75273 -0.00514 -1.03082  0.010458  0.004213  0.006162     2.482
   1.81698  0.76976 -0.00471 -1.03256  0.010431  0.004231  0.006301     2.465
   1.83401  0.78678 -0.00431 -1.03457  0.010387  0.004245  0.006462     2.447
   1.85104  0.80381 -0.00393 -1.03688  0.010328  0.004255  0.006645     2.427
   1.86807  0.82084 -0.00357 -1.03954  0.010252  0.004260  0.006856     2.406
   1.88510  0.83786 -0.00324 -1.04256  0.010159  0.004261  0.007093     2.384
   1.90213  0.85489 -0.00294 -1.04604  0.010044  0.004255  0.007369     2.360
   1.91914  0.87190 -0.00266 -1.04999  0.009911  0.004244  0.007680     2.335
   1.93613  0.88889 -0.00241 -1.05453  0.009753  0.004225  0.008042     2.308
   1.95305  0.90581 -0.00218 -1.05978  0.009568  0.004198  0.008467     2.279
   1.96983  0.92258 -0.00197 -1.06584  0.009352  0.004161  0.008968     2.248
   1.98627  0.93902 -0.00179 -1.07287  0.009102  0.004113  0.009566     2.213
   2.00209  0.95483 -0.00163 -1.08098  0.008814  0.004051  0.010286     2.176
   2.01678  0.96953 -0.00150 -1.09018  0.008494  0.003977  0.011140     2.136
   2.02984  0.98258 -0.00139 -1.10048  0.008137  0.003888  0.012168     2.093
   2.04093  0.99368 -0.00131 -1.11146  0.007769  0.003791  0.013331     2.050
   2.04725  1.00000 -0.00126 -1.12271  0.007339  0.003675  0.014858     1.997
   2.04725  1.00010 -0.00001  1.12271  0.126013  0.007499  0.000000    16.804
   2.05356  1.00636 -0.00081  1.11987  0.125619  0.007856  0.000000    15.990
   2.06096  1.01371 -0.00162  1.11619  0.124910  0.008323  0.000000    15.009
   2.06964  1.02234 -0.00250  1.11179  0.123961  0.008882  0.000000    13.956
   2.07981  1.03247 -0.00347  1.10648  0.122720  0.009561  0.000000    12.836
   2.09174  1.04436 -0.00452  1.10012  0.121116  0.010380  0.000000    11.668
   2.10574  1.05830 -0.00567  1.09248  0.119055  0.011369  0.000000    10.471
   2.12215  1.07467 -0.00692  1.08329  0.116423  0.012569  0.000000     9.263
   2.14139  1.09386 -0.00827  1.07218  0.113077  0.014030  0.000000     8.060
   2.16396  1.11638 -0.00973  1.05863  0.108850  0.015824  0.000000     6.879
   2.19042  1.14280 -0.01128  1.04189  0.103556  0.018065  0.000000     5.733
   2.22145  1.17379 -0.01291  1.02069  0.097028  0.020939  0.000000     4.634
   2.25784  1.21014 -0.01461  0.99465  0.089113  0.024536  0.000000     3.632
   2.30052  1.25278 -0.01636  0.97099  0.079659  0.027839  0.000000     2.861
   2.35057  1.30280 -0.01811  0.95290  0.069231  0.030337  0.000000     2.282
   2.40926  1.36146 -0.01983  0.94373  0.058846  0.031557  0.000000     1.865
   2.47809  1.43027 -0.02145  0.94395  0.049690  0.031530  0.000000     1.576
   2.55880  1.51097 -0.02289  0.95073  0.042505  0.030755  0.000000     1.382
   2.65345  1.60561 -0.02406  0.96000  0.037326  0.029780  0.000000     1.253
   2.76445  1.71661 -0.02483  0.96894  0.033756  0.028906  0.000000     1.168
   2.89461  1.84677 -0.02507  0.97646  0.031337  0.028213  0.000000     1.111
   3.04725  1.99941 -0.02460  0.98655  0.029300  0.027331  0.000000     1.072
