#    s        x        y     Ue/Vinf    Dstar     Theta      Cf       H
   0.00000  1.00000  0.00126  1.02293  0.079696  0.020281 -0.000011     3.930
   0.00630  0.99392  0.00292  1.02434  0.078513  0.020116 -0.000008     3.903
   0.01727  0.98333  0.00577  1.02685  0.076423  0.019828 -0.000003     3.854
   0.03004  0.97098  0.00904  1.02988  0.073991  0.019491  0.000004     3.796
   0.04430  0.95718  0.01262  1.03343  0.071316  0.019108  0.000013     3.732
   0.05958  0.94237  0.01638  1.03746  0.068518  0.018689  0.000024     3.666
   0.07546  0.92696  0.02021  1.04194  0.065697  0.018240  0.000036     3.602
   0.09164  0.91123  0.02403  1.04687  0.062921  0.017766  0.000049     3.542
   0.10799  0.89533  0.02780  1.05230  0.060229  0.017266  0.000063     3.488
   0.12441  0.87933  0.03149  1.05827  0.057640  0.016740  0.000076     3.443
   0.14087  0.86327  0.03511  1.06483  0.055171  0.016187  0.000089     3.408
   0.15734  0.84718  0.03864  1.07198  0.052826  0.015612  0.000100     3.384
   0.17383  0.83106  0.04208  1.07967  0.050617  0.015023  0.000109     3.369
   0.19032  0.81492  0.04544  1.08790  0.048544  0.014422  0.000115     3.366
   0.20680  0.79875  0.04870  1.09671  0.046611  0.013810  0.000118     3.375
   0.22329  0.78258  0.05188  1.10614  0.044813  0.013187  0.000116     3.398
   0.23978  0.76638  0.05496  1.11626  0.043151  0.012551  0.000109     3.438
   0.25626  0.75017  0.05796  1.12713  0.041625  0.011903  0.000094     3.497
   0.27274  0.73395  0.06086  1.13894  0.040228  0.011235  0.000071     3.581
   0.28921  0.71772  0.06368  1.15193  0.038952  0.010538  0.000038     3.696
   0.30568  0.70148  0.06640  1.16618  0.037792  0.009816 -0.000005     3.850
   0.32214  0.68523  0.06902  1.18169  0.036740  0.009074 -0.000056     4.049
   0.33859  0.66898  0.07155  1.19844  0.035790  0.008320 -0.000112     4.302
   0.35503  0.65272  0.07398  1.21646  0.034929  0.007555 -0.000164     4.623
   0.37146  0.63645  0.07632  1.23588  0.034140  0.006782 -0.000209     5.034
   0.38788  0.62019  0.07855  1.25693  0.033404  0.005996 -0.000244     5.571
   0.40429  0.60392  0.08069  1.27995  0.032699  0.005193 -0.000275     6.296
   0.42068  0.58766  0.08272  1.30587  0.031980  0.004353 -0.000318     7.347
   0.43705  0.57140  0.08465  1.33525  0.031207  0.003473 -0.000390     8.986
   0.45341  0.55514  0.08647  1.37009  0.030282  0.002518 -0.000413    12.025
   0.46975  0.53889  0.08818  1.39884  0.029295  0.001810 -0.000740    16.184
   0.48606  0.52265  0.08978  1.39956  0.028482  0.001796 -0.000747    15.855
   0.50236  0.50642  0.09127  1.40021  0.027450  0.001785 -0.000753    15.379
   0.51863  0.49021  0.09264  1.40081  0.026261  0.001775 -0.000760    14.795
   0.53487  0.47402  0.09390  1.40139  0.024950  0.001766 -0.000766    14.127
   0.55108  0.45785  0.09503  1.40197  0.023542  0.001758 -0.000773    13.393
   0.56725  0.44172  0.09603  1.40258  0.022059  0.001750 -0.000781    12.608
   0.58335  0.42564  0.09690  1.40324  0.020518  0.001741 -0.000790    11.784
   0.59935  0.40965  0.09765  1.40397  0.018937  0.001732 -0.000801    10.932
   0.61519  0.39382  0.09824  1.40483  0.017329  0.001722 -0.000814    10.061
   0.63085  0.37817  0.09865  1.40590  0.015774  0.001710 -0.000831     9.223
   0.64639  0.36263  0.09885  1.40728  0.014283  0.001696 -0.000853     8.424
   0.66187  0.34716  0.09884  1.40906  0.012863  0.001677 -0.000882     7.668
   0.67728  0.33174  0.09863  1.41136  0.011524  0.001656 -0.000919     6.961
   0.69264  0.31639  0.09821  1.41433  0.010274  0.001630 -0.000969     6.305
   0.70795  0.30109  0.09757  1.41814  0.009121  0.001599 -0.001029     5.706
   0.72321  0.28586  0.09672  1.42301  0.008074  0.001562 -0.001056     5.168
   0.73841  0.27069  0.09564  1.42912  0.007137  0.001520 -0.000992     4.694
   0.75355  0.25561  0.09433  1.43656  0.006313  0.001473 -0.000737     4.285
   0.76863  0.24061  0.09280  1.44518  0.005599  0.001422 -0.000235     3.938
   0.78363  0.22571  0.09103  1.45509  0.004993  0.001366  0.000502     3.654
   0.79855  0.21092  0.08902  1.46618  0.004484  0.001307  0.001410     3.431
   0.81339  0.19626  0.08678  1.47805  0.004059  0.001245  0.002417     3.259
   0.82811  0.18175  0.08429  1.49024  0.003705  0.001184  0.003452     3.129
   0.84271  0.16741  0.08155  1.50241  0.003405  0.001123  0.004493     3.031
   0.85717  0.15327  0.07856  1.51433  0.003148  0.001064  0.005500     2.957
   0.87144  0.13937  0.07533  1.52598  0.002921  0.001007  0.006489     2.902
   0.88548  0.12576  0.07185  1.53733  0.002720  0.000951  0.007444     2.861
   0.89921  0.11254  0.06815  1.54852  0.002534  0.000895  0.008395     2.830
   0.91255  0.09978  0.06426  1.55967  0.002361  0.000841  0.009357     2.808
   0.92536  0.08762  0.06020  1.57090  0.002197  0.000787  0.010352     2.791
   0.93750  0.07622  0.05606  1.58233  0.002040  0.000734  0.011422     2.778
   0.94879  0.06572  0.05190  1.59395  0.001890  0.000683  0.012581     2.768
   0.95911  0.05625  0.04782  1.60578  0.001746  0.000633  0.013892     2.759
   0.96837  0.04786  0.04389  1.61768  0.001609  0.000585  0.015391     2.748
   0.97657  0.04055  0.04017  1.62948  0.001480  0.000541  0.017110     2.736
   0.98379  0.03423  0.03668  1.64104  0.001359  0.000499  0.019105     2.722
   0.99012  0.02879  0.03343  1.65218  0.001244  0.000460  0.021468     2.705
   0.99570  0.02411  0.03040  1.66264  0.001138  0.000424  0.024212     2.685
   1.00063  0.02008  0.02756  1.67220  0.001038  0.000390  0.027440     2.662
   1.00502  0.01660  0.02489  1.68056  0.000945  0.000359  0.031273     2.635
   1.00896  0.01357  0.02236  1.68716  0.000858  0.000329  0.035695     2.608
   1.01253  0.01095  0.01995  1.69156  0.000776  0.000301  0.040989     2.576
   1.01577  0.00867  0.01764  1.69273  0.000701  0.000276  0.047012     2.545
   1.01874  0.00671  0.01541  1.68981  0.000631  0.000251  0.054224     2.510
   1.02149  0.00502  0.01324  1.68084  0.000566  0.000229  0.062466     2.473
   1.02404  0.00360  0.01113  1.66374  0.000508  0.000208  0.071397     2.438
   1.02642  0.00242  0.00906  1.63622  0.000456  0.000190  0.081338     2.401
   1.02866  0.00148  0.00703  1.59465  0.000410  0.000173  0.091229     2.366
   1.03077  0.00077  0.00504  1.53578  0.000371  0.000159  0.100453     2.331
   1.03277  0.00029  0.00309  1.45665  0.000340  0.000148  0.106933     2.302
   1.03468  0.00004  0.00120  1.35721  0.000316  0.000139  0.109375     2.279
   1.03651  0.00001 -0.00064  1.24033  0.000299  0.000132  0.106955     2.265
   1.03838  0.00020 -0.00249  1.10003  0.000285  0.000127  0.101838     2.242
   1.04030  0.00065 -0.00436  0.93438  0.000279  0.000125  0.088968     2.232
   1.04230  0.00137 -0.00623  0.75295  0.000279  0.000126  0.072488     2.220
   1.04439  0.00239 -0.00805  0.56352  0.000289  0.000131  0.052866     2.209
   1.04657  0.00369 -0.00980  0.38373  0.000308  0.000138  0.033290     2.226
   1.04888  0.00527 -0.01148  0.21703  0.000328  0.000149  0.017975     2.208
   1.05132  0.00712 -0.01307  0.07231  0.000381  0.000171  0.005058     2.230
   1.05393  0.00925 -0.01459 -0.05423  0.000381  0.000171  0.003798     2.230
   1.05675  0.01167 -0.01603 -0.16437  0.000446  0.000198  0.009580     2.257
   1.05979  0.01438 -0.01741 -0.25703  0.000486  0.000217  0.013976     2.240
   1.06312  0.01744 -0.01873 -0.33789  0.000540  0.000238  0.016029     2.273
   1.06679  0.02087 -0.02000 -0.40741  0.000594  0.000261  0.017604     2.272
   1.07086  0.02476 -0.02123 -0.46867  0.000656  0.000287  0.018030     2.289
   1.07542  0.02916 -0.02242 -0.52239  0.000723  0.000315  0.018066     2.299
   1.08058  0.03419 -0.02357 -0.56999  0.000799  0.000345  0.017641     2.312
   1.08647  0.03998 -0.02467 -0.61230  0.000882  0.000379  0.016969     2.324
   1.09325  0.04667 -0.02572 -0.65008  0.000974  0.000417  0.016113     2.336
   1.10108  0.05445 -0.02670 -0.68364  0.001078  0.000459  0.015110     2.350
   1.11013  0.06345 -0.02758 -0.71308  0.001195  0.000505  0.014027     2.364
   1.12048  0.07377 -0.02833 -0.73882  0.001320  0.000556  0.012992     2.376
   1.13215  0.08543 -0.02891 -0.76061  0.001461  0.000611  0.011905     2.392
   1.14504  0.09832 -0.02929 -0.77882  0.001607  0.000668  0.010939     2.405
   1.15896  0.11223 -0.02947 -0.79372  0.001760  0.000728  0.010043     2.418
   1.17368  0.12696 -0.02945 -0.80575  0.001916  0.000788  0.009246     2.431
   1.18901  0.14228 -0.02924 -0.81535  0.002074  0.000849  0.008535     2.443
   1.20480  0.15806 -0.02887 -0.82317  0.002228  0.000909  0.007946     2.452
   1.22092  0.17418 -0.02837 -0.82939  0.002383  0.000968  0.007400     2.463
   1.23731  0.19056 -0.02776 -0.83450  0.002533  0.001025  0.006944     2.471
   1.25391  0.20714 -0.02707 -0.83873  0.002680  0.001081  0.006549     2.478
   1.27067  0.22389 -0.02630 -0.84223  0.002824  0.001136  0.006196     2.485
   1.28758  0.24078 -0.02549 -0.84527  0.002961  0.001189  0.005901     2.490
   1.30460  0.25777 -0.02465 -0.84795  0.003093  0.001240  0.005648     2.493
   1.32169  0.27484 -0.02379 -0.85035  0.003219  0.001290  0.005427     2.496
   1.33881  0.29194 -0.02292 -0.85268  0.003335  0.001337  0.005257     2.495
   1.35590  0.30901 -0.02207 -0.85489  0.003446  0.001382  0.005108     2.494
   1.37294  0.32603 -0.02124 -0.85717  0.003545  0.001424  0.005001     2.490
   1.38994  0.34301 -0.02043 -0.85957  0.003633  0.001463  0.004927     2.483
   1.40689  0.35994 -0.01967 -0.86220  0.003708  0.001499  0.004891     2.474
   1.42382  0.37686 -0.01894 -0.86515  0.003769  0.001531  0.004891     2.461
   1.44075  0.39378 -0.01827 -0.86867  0.003808  0.001559  0.004952     2.443
   1.45775  0.41076 -0.01762 -0.87295  0.003825  0.001581  0.005075     2.420
   1.47481  0.42781 -0.01697 -0.87677  0.003877  0.001607  0.005063     2.413
   1.49192  0.44491 -0.01629 -0.88021  0.003945  0.001634  0.004991     2.414
   1.50907  0.46204 -0.01560 -0.88327  0.004023  0.001663  0.004887     2.419
   1.52625  0.47921 -0.01490 -0.88607  0.004104  0.001693  0.004780     2.424
   1.54344  0.49639 -0.01420 -0.88864  0.004185  0.001723  0.004674     2.429
   1.56064  0.51357 -0.01350 -0.89097  0.004269  0.001753  0.004566     2.436
   1.57783  0.53074 -0.01280 -0.89319  0.004347  0.001782  0.004477     2.440
   1.59499  0.54790 -0.01211 -0.89534  0.004422  0.001811  0.004400     2.442
   1.61214  0.56503 -0.01143 -0.89741  0.004493  0.001838  0.004332     2.444
   1.62928  0.58215 -0.01076 -0.89942  0.004561  0.001866  0.004272     2.445
   1.64639  0.59926 -0.01011 -0.90146  0.004623  0.001892  0.004229     2.444
   1.66350  0.61635 -0.00947 -0.90347  0.004683  0.001917  0.004189     2.443
   1.68058  0.63342 -0.00885 -0.90558  0.004734  0.001941  0.004167     2.440
   1.69766  0.65049 -0.00825 -0.90770  0.004783  0.001963  0.004149     2.436
   1.71473  0.66755 -0.00768 -0.90991  0.004826  0.001985  0.004142     2.432
   1.73178  0.68459 -0.00712 -0.91223  0.004864  0.002005  0.004145     2.426
   1.74883  0.70164 -0.00659 -0.91460  0.004899  0.002024  0.004151     2.420
   1.76588  0.71867 -0.00608 -0.91715  0.004924  0.002042  0.004174     2.412
   1.78292  0.73570 -0.00560 -0.91979  0.004948  0.002058  0.004198     2.404
   1.79995  0.75273 -0.00514 -0.92261  0.004964  0.002072  0.004236     2.395
   1.81698  0.76976 -0.00471 -0.92556  0.004977  0.002086  0.004277     2.386
   1.83401  0.78678 -0.00431 -0.92874  0.004981  0.002097  0.004333     2.375
   1.85104  0.80381 -0.00393 -0.93209  0.004982  0.002107  0.004394     2.365
   1.86807  0.82084 -0.00357 -0.93573  0.004973  0.002114  0.004473     2.352
   1.88510  0.83786 -0.00324 -0.93960  0.004960  0.002120  0.004559     2.340
   1.90213  0.85489 -0.00294 -0.94385  0.004935  0.002123  0.004669     2.325
   1.91914  0.87190 -0.00266 -0.94842  0.004904  0.002123  0.004789     2.310
   1.93613  0.88889 -0.00241 -0.95341  0.004864  0.002121  0.004931     2.293
   1.95305  0.90581 -0.00218 -0.95899  0.004808  0.002115  0.005109     2.274
   1.96983  0.92258 -0.00197 -0.96518  0.004739  0.002104  0.005321     2.252
   1.98627  0.93902 -0.00179 -0.97213  0.004652  0.002088  0.005581     2.228
   2.00209  0.95483 -0.00163 -0.97999  0.004542  0.002065  0.005911     2.199
   2.01678  0.96953 -0.00150 -0.98871  0.004411  0.002036  0.006314     2.167
   2.02984  0.98258 -0.00139 -0.99864  0.004246  0.001996  0.006852     2.128
   2.04093  0.99368 -0.00131 -1.00941  0.004063  0.001948  0.007498     2.085
   2.04725  1.00000 -0.00126 -1.02293  0.003762  0.001870  0.008707     2.011
   2.04725  1.00010 -0.00001  1.02293  0.085932  0.022151  0.000000     3.879
   2.05356  1.00636 -0.00080  1.02076  0.085479  0.022426  0.000000     3.812
   2.06096  1.01372 -0.00157  1.01712  0.084781  0.022893  0.000000     3.703
   2.06964  1.02236 -0.00238  1.01270  0.083885  0.023463  0.000000     3.575
   2.07981  1.03250 -0.00323  1.00741  0.082758  0.024148  0.000000     3.427
   2.09174  1.04439 -0.00413  1.00163  0.081338  0.024903  0.000000     3.266
   2.10574  1.05836 -0.00506  0.99586  0.079554  0.025659  0.000000     3.100
   2.12215  1.07474 -0.00602  0.98972  0.077393  0.026468  0.000000     2.924
   2.14139  1.09396 -0.00698  0.98337  0.074813  0.027303  0.000000     2.740
   2.16396  1.11650 -0.00793  0.97710  0.071787  0.028127  0.000000     2.552
   2.19042  1.14295 -0.00881  0.97124  0.068313  0.028891  0.000000     2.365
   2.22145  1.17397 -0.00959  0.96624  0.064432  0.029536  0.000000     2.181
   2.25784  1.21036 -0.01019  0.96252  0.060234  0.030006  0.000000     2.007
   2.30052  1.25304 -0.01053  0.96047  0.055866  0.030258  0.000000     1.846
   2.35057  1.30308 -0.01050  0.96028  0.051511  0.030281  0.000000     1.701
   2.40926  1.36177 -0.00996  0.96185  0.047367  0.030101  0.000000     1.574
   2.47809  1.43059 -0.00873  0.96484  0.043594  0.029774  0.000000     1.464
   2.55880  1.51127 -0.00661  0.96871  0.040294  0.029370  0.000000     1.372
   2.65345  1.60587 -0.00332  0.97291  0.037497  0.028949  0.000000     1.295
   2.76445  1.71676  0.00144  0.97703  0.035180  0.028553  0.000000     1.232
   2.89461  1.84676  0.00805  0.98082  0.033291  0.028201  0.000000     1.181
   3.04725  1.99914  0.01698  0.98806  0.031336  0.027553  0.000000     1.137
