#    s        x        y     Ue/Vinf    Dstar     Theta      Cf       H
   0.00000  1.00000  0.00126  1.19148  0.291666  0.019075 -0.000180    15.290
   0.00630  0.99392  0.00292  1.19250  0.289620  0.018794 -0.000183    15.411
   0.01727  0.98333  0.00577  1.19432  0.286037  0.018299 -0.000188    15.631
   0.03004  0.97098  0.00904  1.19649  0.281767  0.017718 -0.000194    15.903
   0.04430  0.95718  0.01262  1.19900  0.276938  0.017061 -0.000202    16.233
   0.05958  0.94237  0.01638  1.20182  0.271710  0.016340 -0.000211    16.629
   0.07546  0.92696  0.02021  1.20491  0.266231  0.015569 -0.000222    17.100
   0.09164  0.91123  0.02403  1.20821  0.260613  0.014766 -0.000234    17.650
   0.10799  0.89533  0.02780  1.21173  0.254914  0.013935 -0.000248    18.293
   0.12441  0.87933  0.03149  1.21546  0.249164  0.013077 -0.000265    19.054
   0.14087  0.86327  0.03511  1.21945  0.243381  0.012190 -0.000285    19.966
   0.15734  0.84718  0.03864  1.22372  0.237567  0.011268 -0.000308    21.083
   0.17383  0.83106  0.04208  1.22833  0.231724  0.010306 -0.000332    22.485
   0.19032  0.81492  0.04544  1.23336  0.225844  0.009292 -0.000335    24.306
   0.20680  0.79875  0.04870  1.23892  0.219914  0.008210 -0.000338    26.786
   0.22329  0.78258  0.05188  1.24515  0.213917  0.007044 -0.000341    30.368
   0.23978  0.76638  0.05496  1.25244  0.207796  0.005734 -0.000345    36.238
   0.25626  0.75017  0.05796  1.26166  0.201421  0.004140 -0.000350    48.654
   0.27274  0.73395  0.06086  1.27262  0.194823  0.002336 -0.001509    83.410
   0.28921  0.71772  0.06368  1.27276  0.189772  0.002321 -0.001518    81.750
   0.30568  0.70148  0.06640  1.27290  0.184642  0.002308 -0.001527    79.994
   0.32214  0.68523  0.06902  1.27304  0.179450  0.002296 -0.001536    78.156
   0.33859  0.66898  0.07155  1.27317  0.174215  0.002285 -0.001544    76.249
   0.35503  0.65272  0.07398  1.27330  0.168943  0.002274 -0.001551    74.278
   0.37146  0.63645  0.07632  1.27343  0.163641  0.002265 -0.001558    72.248
   0.38788  0.62019  0.07855  1.27356  0.158314  0.002256 -0.001565    70.163
   0.40429  0.60392  0.08069  1.27369  0.152970  0.002249 -0.001571    68.030
   0.42068  0.58766  0.08272  1.27381  0.147610  0.002242 -0.001576    65.849
   0.43705  0.57140  0.08465  1.27393  0.142242  0.002236 -0.001581    63.628
   0.45341  0.55514  0.08647  1.27405  0.136865  0.002230 -0.001586    61.366
   0.46975  0.53889  0.08818  1.27416  0.131486  0.002226 -0.001590    59.071
   0.48606  0.52265  0.08978  1.27427  0.126108  0.002222 -0.001593    56.746
   0.50236  0.50642  0.09127  1.27438  0.120732  0.002220 -0.001596    54.394
   0.51863  0.49021  0.09264  1.27448  0.115366  0.002218 -0.001598    52.021
   0.53487  0.47402  0.09390  1.27458  0.110011  0.002217 -0.001600    49.630
   0.55108  0.45785  0.09503  1.27467  0.104669  0.002216 -0.001602    47.226
   0.56725  0.44172  0.09603  1.27476  0.099347  0.002217 -0.001602    44.814
   0.58335  0.42564  0.09690  1.27485  0.094055  0.002218 -0.001603    42.402
   0.59935  0.40965  0.09765  1.27492  0.088802  0.002220 -0.001603    39.998
   0.61519  0.39382  0.09824  1.27500  0.083603  0.002223 -0.001603    37.609
   0.63085  0.37817  0.09865  1.27507  0.078531  0.002226 -0.001603    35.284
   0.64639  0.36263  0.09885  1.27515  0.073579  0.002228 -0.001603    33.024
   0.66187  0.34716  0.09884  1.27525  0.068743  0.002230 -0.001605    30.829
   0.67728  0.33174  0.09863  1.27537  0.064025  0.002231 -0.001607    28.699
   0.69264  0.31639  0.09821  1.27551  0.059426  0.002231 -0.001610    26.636
   0.70795  0.30109  0.09757  1.27569  0.054953  0.002230 -0.001615    24.643
   0.72321  0.28586  0.09672  1.27592  0.050613  0.002227 -0.001621    22.723
   0.73841  0.27069  0.09564  1.27621  0.046408  0.002223 -0.001630    20.877
   0.75355  0.25561  0.09433  1.27658  0.042348  0.002216 -0.001641    19.107
   0.76863  0.24061  0.09280  1.27706  0.038437  0.002207 -0.001656    17.415
   0.78363  0.22571  0.09103  1.27769  0.034685  0.002195 -0.001675    15.805
   0.79855  0.21092  0.08902  1.27852  0.031097  0.002178 -0.001700    14.277
   0.81339  0.19626  0.08678  1.27962  0.027683  0.002157 -0.001732    12.834
   0.82811  0.18175  0.08429  1.28109  0.024451  0.002130 -0.001774    11.480
   0.84271  0.16741  0.08155  1.28308  0.021410  0.002096 -0.001830    10.216
   0.85717  0.15327  0.07856  1.28577  0.018577  0.002054 -0.001906     9.047
   0.87144  0.13937  0.07533  1.28942  0.015959  0.002001 -0.002010     7.974
   0.88548  0.12576  0.07185  1.29440  0.013573  0.001938 -0.002157     7.003
   0.89921  0.11254  0.06815  1.30118  0.011435  0.001862 -0.002366     6.140
   0.91255  0.09978  0.06426  1.31034  0.009556  0.001773 -0.002586     5.390
   0.92536  0.08762  0.06020  1.32249  0.007948  0.001670 -0.002567     4.758
   0.93750  0.07622  0.05606  1.33790  0.006606  0.001557 -0.001827     4.244
   0.94879  0.06572  0.05190  1.35613  0.005518  0.001438 -0.000051     3.839
   0.95911  0.05625  0.04782  1.37671  0.004651  0.001316  0.002716     3.534
   0.96837  0.04786  0.04389  1.39857  0.003968  0.001199  0.006243     3.311
   0.97657  0.04055  0.04017  1.42050  0.003427  0.001089  0.010319     3.148
   0.98379  0.03423  0.03668  1.44160  0.002992  0.000989  0.014833     3.026
   0.99012  0.02879  0.03343  1.46138  0.002635  0.000899  0.019785     2.931
   0.99570  0.02411  0.03040  1.47962  0.002333  0.000818  0.025340     2.853
   1.00063  0.02008  0.02756  1.49602  0.002076  0.000745  0.031453     2.787
   1.00502  0.01660  0.02489  1.51049  0.001851  0.000679  0.038454     2.728
   1.00896  0.01357  0.02236  1.52254  0.001655  0.000618  0.046123     2.677
   1.01253  0.01095  0.01995  1.53206  0.001477  0.000562  0.055229     2.627
   1.01577  0.00867  0.01764  1.53800  0.001320  0.000512  0.065383     2.581
   1.01874  0.00671  0.01541  1.53960  0.001178  0.000465  0.077110     2.536
   1.02149  0.00502  0.01324  1.53537  0.001051  0.000422  0.090276     2.493
   1.02404  0.00360  0.01113  1.52349  0.000937  0.000382  0.105054     2.451
   1.02642  0.00242  0.00906  1.50140  0.000837  0.000347  0.120754     2.411
   1.02866  0.00148  0.00703  1.46635  0.000751  0.000316  0.136459     2.373
   1.03077  0.00077  0.00504  1.41527  0.000677  0.000290  0.151576     2.335
   1.03277  0.00029  0.00309  1.34507  0.000619  0.000269  0.162196     2.305
   1.03468  0.00004  0.00120  1.25638  0.000576  0.000252  0.165985     2.284
   1.03651  0.00001 -0.00064  1.15163  0.000542  0.000239  0.164415     2.267
   1.03838  0.00020 -0.00249  1.02332  0.000515  0.000230  0.157342     2.242
   1.04030  0.00065 -0.00436  0.87151  0.000505  0.000226  0.137472     2.235
   1.04230  0.00137 -0.00623  0.70455  0.000502  0.000226  0.113307     2.219
   1.04439  0.00239 -0.00805  0.52928  0.000521  0.000235  0.082538     2.213
   1.04657  0.00369 -0.00980  0.36161  0.000550  0.000248  0.052927     2.222
   1.04888  0.00527 -0.01148  0.20542  0.000591  0.000268  0.028286     2.210
   1.05132  0.00712 -0.01307  0.07031  0.000676  0.000303  0.008317     2.230
   1.05393  0.00925 -0.01459 -0.05022  0.000676  0.000303  0.005943     2.230
   1.05675  0.01167 -0.01603 -0.15620  0.000787  0.000349  0.015525     2.255
   1.05979  0.01438 -0.01741 -0.24505  0.000861  0.000384  0.022502     2.243
   1.06312  0.01744 -0.01873 -0.32281  0.000954  0.000420  0.026115     2.269
   1.06679  0.02087 -0.02000 -0.39063  0.001044  0.000460  0.028859     2.270
   1.07086  0.02476 -0.02123 -0.45088  0.001150  0.000503  0.029784     2.286
   1.07542  0.02916 -0.02242 -0.50407  0.001265  0.000551  0.029997     2.296
   1.08058  0.03419 -0.02357 -0.55145  0.001393  0.000603  0.029433     2.309
   1.08647  0.03998 -0.02467 -0.59411  0.001532  0.000661  0.028560     2.319
   1.09325  0.04667 -0.02572 -0.63269  0.001688  0.000724  0.027305     2.330
   1.10108  0.05445 -0.02670 -0.66723  0.001864  0.000795  0.025738     2.344
   1.11013  0.06345 -0.02758 -0.69820  0.002055  0.000873  0.024167     2.355
   1.12048  0.07377 -0.02833 -0.72548  0.002268  0.000958  0.022455     2.368
   1.13215  0.08543 -0.02891 -0.74933  0.002494  0.001048  0.020871     2.379
   1.14504  0.09832 -0.02929 -0.76968  0.002736  0.001144  0.019305     2.392
   1.15896  0.11223 -0.02947 -0.78685  0.002983  0.001242  0.017909     2.402
   1.17368  0.12696 -0.02945 -0.80117  0.003235  0.001341  0.016640     2.413
   1.18901  0.14228 -0.02924 -0.81306  0.003486  0.001439  0.015516     2.422
   1.20480  0.15806 -0.02887 -0.82318  0.003729  0.001535  0.014590     2.429
   1.22092  0.17418 -0.02837 -0.83163  0.003973  0.001630  0.013716     2.437
   1.23731  0.19056 -0.02776 -0.83892  0.004207  0.001722  0.012993     2.443
   1.25391  0.20714 -0.02707 -0.84530  0.004431  0.001811  0.012374     2.447
   1.27067  0.22389 -0.02630 -0.85091  0.004651  0.001897  0.011817     2.451
   1.28758  0.24078 -0.02549 -0.85601  0.004858  0.001980  0.011358     2.453
   1.30460  0.25777 -0.02465 -0.86069  0.005056  0.002060  0.010960     2.454
   1.32169  0.27484 -0.02379 -0.86507  0.005244  0.002136  0.010621     2.454
   1.33881  0.29194 -0.02292 -0.86934  0.005413  0.002208  0.010368     2.452
   1.35590  0.30901 -0.02207 -0.87344  0.005576  0.002277  0.010139     2.449
   1.37294  0.32603 -0.02124 -0.87758  0.005718  0.002340  0.009989     2.444
   1.38994  0.34301 -0.02043 -0.88181  0.005844  0.002399  0.009894     2.436
   1.40689  0.35994 -0.01967 -0.88623  0.005951  0.002452  0.009859     2.427
   1.42382  0.37686 -0.01894 -0.89094  0.006038  0.002500  0.009883     2.416
   1.44075  0.39378 -0.01827 -0.89617  0.006096  0.002540  0.010004     2.400
   1.45775  0.41076 -0.01762 -0.90204  0.006127  0.002573  0.010207     2.381
   1.47481  0.42781 -0.01697 -0.90765  0.006193  0.002609  0.010238     2.373
   1.49192  0.44491 -0.01629 -0.91299  0.006278  0.002647  0.010181     2.371
   1.50907  0.46204 -0.01560 -0.91806  0.006373  0.002687  0.010078     2.372
   1.52625  0.47921 -0.01490 -0.92289  0.006471  0.002726  0.009960     2.374
   1.54344  0.49639 -0.01420 -0.92754  0.006569  0.002765  0.009844     2.376
   1.56064  0.51357 -0.01350 -0.93199  0.006666  0.002804  0.009728     2.377
   1.57783  0.53074 -0.01280 -0.93634  0.006759  0.002842  0.009632     2.378
   1.59499  0.54790 -0.01211 -0.94063  0.006844  0.002878  0.009558     2.378
   1.61214  0.56503 -0.01143 -0.94487  0.006924  0.002913  0.009501     2.377
   1.62928  0.58215 -0.01076 -0.94909  0.006998  0.002946  0.009459     2.375
   1.64639  0.59926 -0.01011 -0.95337  0.007062  0.002978  0.009446     2.372
   1.66350  0.61635 -0.00947 -0.95767  0.007121  0.003007  0.009445     2.368
   1.68058  0.63342 -0.00885 -0.96212  0.007168  0.003034  0.009478     2.363
   1.69766  0.65049 -0.00825 -0.96664  0.007209  0.003059  0.009519     2.357
   1.71473  0.66755 -0.00768 -0.97131  0.007242  0.003081  0.009585     2.350
   1.73178  0.68459 -0.00712 -0.97616  0.007264  0.003101  0.009674     2.343
   1.74883  0.70164 -0.00659 -0.98118  0.007280  0.003118  0.009777     2.335
   1.76588  0.71867 -0.00608 -0.98646  0.007284  0.003132  0.009913     2.325
   1.78292  0.73570 -0.00560 -0.99195  0.007281  0.003144  0.010062     2.316
   1.79995  0.75273 -0.00514 -0.99776  0.007267  0.003152  0.010242     2.305
   1.81698  0.76976 -0.00471 -1.00384  0.007245  0.003158  0.010441     2.294
   1.83401  0.78678 -0.00431 -1.01031  0.007211  0.003159  0.010675     2.283
   1.85104  0.80381 -0.00393 -1.01716  0.007168  0.003157  0.010936     2.270
   1.86807  0.82084 -0.00357 -1.02450  0.007111  0.003151  0.011242     2.257
   1.88510  0.83786 -0.00324 -1.03235  0.007044  0.003141  0.011585     2.242
   1.90213  0.85489 -0.00294 -1.04085  0.006960  0.003126  0.011990     2.227
   1.91914  0.87190 -0.00266 -1.05005  0.006863  0.003105  0.012449     2.210
   1.93613  0.88889 -0.00241 -1.06007  0.006751  0.003079  0.012980     2.192
   1.95305  0.90581 -0.00218 -1.07118  0.006613  0.003045  0.013626     2.172
   1.96983  0.92258 -0.00197 -1.08348  0.006455  0.003002  0.014392     2.150
   1.98627  0.93902 -0.00179 -1.09724  0.006268  0.002950  0.015331     2.125
   2.00209  0.95483 -0.00163 -1.11267  0.006048  0.002885  0.016501     2.096
   2.01678  0.96953 -0.00150 -1.12974  0.005798  0.002809  0.017941     2.064
   2.02984  0.98258 -0.00139 -1.14879  0.005504  0.002717  0.019821     2.026
   2.04093  0.99368 -0.00131 -1.16931  0.005187  0.002614  0.022112     1.984
   2.04725  1.00000 -0.00126 -1.19148  0.004753  0.002480  0.025877     1.916
   2.04725  1.00010 -0.00001  1.19148  0.298894  0.021555  0.000000    13.866
   2.05356  1.00636 -0.00079  1.18990  0.299180  0.022009  0.000000    13.593
   2.06096  1.01372 -0.00151  1.18792  0.299295  0.022583  0.000000    13.253
   2.06964  1.02237 -0.00224  1.18558  0.299338  0.023261  0.000000    12.869
   2.07981  1.03252 -0.00297  1.18284  0.299274  0.024063  0.000000    12.437
   2.09174  1.04443 -0.00370  1.17962  0.299065  0.025013  0.000000    11.957
   2.10574  1.05840 -0.00439  1.17584  0.298656  0.026139  0.000000    11.426
   2.12215  1.07480 -0.00503  1.17138  0.297975  0.027477  0.000000    10.845
   2.14139  1.09404 -0.00556  1.16612  0.296927  0.029068  0.000000    10.215
   2.16396  1.11660 -0.00595  1.15993  0.295386  0.030966  0.000000     9.539
   2.19042  1.14306 -0.00611  1.15261  0.293192  0.033236  0.000000     8.822
   2.22145  1.17410 -0.00595  1.14395  0.290135  0.035961  0.000000     8.068
   2.25784  1.21048 -0.00535  1.13366  0.285950  0.039246  0.000000     7.286
   2.30052  1.25314 -0.00416  1.12138  0.280303  0.043234  0.000000     6.483
   2.35057  1.30315 -0.00218  1.10661  0.272785  0.048122  0.000000     5.669
   2.40926  1.36177  0.00081  1.08858  0.262921  0.054216  0.000000     4.849
   2.47809  1.43046  0.00512  1.06583  0.250262  0.062113  0.000000     4.029
   2.55880  1.51095  0.01110  1.03662  0.234434  0.072631  0.000000     3.228
   2.65345  1.60525  0.01918  1.01236  0.213952  0.081613  0.000000     2.622
   2.76445  1.71573  0.02990  0.99593  0.189095  0.087689  0.000000     2.156
   2.89461  1.84514  0.04387  0.99197  0.159950  0.089090  0.000000     1.795
   3.04725  1.99672  0.06184  1.05714  0.099777  0.070843  0.000000     1.408
