#    s        x        y     Ue/Vinf    Dstar     Theta      Cf       H
   0.00000  1.00000  0.00126  1.20771  0.333696  0.024976 -0.000141    13.361
   0.00630  0.99392  0.00292  1.20850  0.331502  0.024726 -0.000142    13.407
   0.01727  0.98333  0.00577  1.20990  0.327668  0.024290 -0.000145    13.490
   0.03004  0.97098  0.00904  1.21155  0.323092  0.023780 -0.000148    13.587
   0.04430  0.95718  0.01262  1.21345  0.317911  0.023207 -0.000152    13.699
   0.05958  0.94237  0.01638  1.21553  0.312303  0.022589 -0.000156    13.826
   0.07546  0.92696  0.02021  1.21776  0.306431  0.021941 -0.000161    13.966
   0.09164  0.91123  0.02403  1.22011  0.300409  0.021273 -0.000166    14.121
   0.10799  0.89533  0.02780  1.22257  0.294303  0.020592 -0.000172    14.292
   0.12441  0.87933  0.03149  1.22513  0.288148  0.019899 -0.000178    14.480
   0.14087  0.86327  0.03511  1.22779  0.281968  0.019196 -0.000185    14.689
   0.15734  0.84718  0.03864  1.23057  0.275770  0.018482 -0.000192    14.921
   0.17383  0.83106  0.04208  1.23347  0.269563  0.017756 -0.000200    15.181
   0.19032  0.81492  0.04544  1.23649  0.263352  0.017019 -0.000209    15.474
   0.20680  0.79875  0.04870  1.23967  0.257139  0.016268 -0.000219    15.807
   0.22329  0.78258  0.05188  1.24305  0.250915  0.015490 -0.000231    16.199
   0.23978  0.76638  0.05496  1.24663  0.244688  0.014693 -0.000243    16.654
   0.25626  0.75017  0.05796  1.25041  0.238463  0.013875 -0.000258    17.186
   0.27274  0.73395  0.06086  1.25442  0.232236  0.013036 -0.000275    17.815
   0.28921  0.71772  0.06368  1.25871  0.226009  0.012170 -0.000295    18.571
   0.30568  0.70148  0.06640  1.26331  0.219775  0.011273 -0.000319    19.496
   0.32214  0.68523  0.06902  1.26828  0.213531  0.010338 -0.000348    20.655
   0.33859  0.66898  0.07155  1.27371  0.207268  0.009356 -0.000357    22.154
   0.35503  0.65272  0.07398  1.27972  0.200977  0.008312 -0.000360    24.179
   0.37146  0.63645  0.07632  1.28647  0.194637  0.007190 -0.000364    27.071
   0.38788  0.62019  0.07855  1.29429  0.188207  0.005947 -0.000369    31.649
   0.40429  0.60392  0.08069  1.30399  0.181591  0.004476 -0.000374    40.574
   0.42068  0.58766  0.08272  1.31921  0.174322  0.002169 -0.000383    80.386
   0.43705  0.57140  0.08465  1.32035  0.168818  0.002025 -0.001805    83.372
   0.45341  0.55514  0.08647  1.32055  0.163340  0.002008 -0.001821    81.348
   0.46975  0.53889  0.08818  1.32075  0.157798  0.001992 -0.001836    79.214
   0.48606  0.52265  0.08978  1.32094  0.152206  0.001977 -0.001851    76.983
   0.50236  0.50642  0.09127  1.32114  0.146574  0.001963 -0.001865    74.659
   0.51863  0.49021  0.09264  1.32133  0.140914  0.001950 -0.001878    72.254
   0.53487  0.47402  0.09390  1.32152  0.135230  0.001938 -0.001891    69.770
   0.55108  0.45785  0.09503  1.32172  0.129526  0.001927 -0.001902    67.207
   0.56725  0.44172  0.09603  1.32191  0.123814  0.001917 -0.001913    64.578
   0.58335  0.42564  0.09690  1.32209  0.118099  0.001908 -0.001923    61.883
   0.59935  0.40965  0.09765  1.32228  0.112399  0.001901 -0.001932    59.136
   0.61519  0.39382  0.09824  1.32246  0.106725  0.001894 -0.001940    56.342
   0.63085  0.37817  0.09865  1.32263  0.101155  0.001888 -0.001947    53.566
   0.64639  0.36263  0.09885  1.32282  0.095679  0.001883 -0.001955    50.816
   0.66187  0.34716  0.09884  1.32301  0.090294  0.001877 -0.001962    48.094
   0.67728  0.33174  0.09863  1.32321  0.084999  0.001872 -0.001969    45.402
   0.69264  0.31639  0.09821  1.32343  0.079797  0.001867 -0.001977    42.747
   0.70795  0.30109  0.09757  1.32366  0.074694  0.001861 -0.001985    40.133
   0.72321  0.28586  0.09672  1.32392  0.069694  0.001855 -0.001994    37.565
   0.73841  0.27069  0.09564  1.32419  0.064802  0.001849 -0.002004    35.048
   0.75355  0.25561  0.09433  1.32451  0.060025  0.001842 -0.002015    32.587
   0.76863  0.24061  0.09280  1.32486  0.055365  0.001834 -0.002028    30.184
   0.78363  0.22571  0.09103  1.32527  0.050835  0.001825 -0.002042    27.848
   0.79855  0.21092  0.08902  1.32575  0.046432  0.001815 -0.002059    25.577
   0.81339  0.19626  0.08678  1.32631  0.042171  0.001804 -0.002079    23.381
   0.82811  0.18175  0.08429  1.32700  0.038055  0.001790 -0.002103    21.261
   0.84271  0.16741  0.08155  1.32783  0.034093  0.001774 -0.002132    19.221
   0.85717  0.15327  0.07856  1.32888  0.030297  0.001754 -0.002169    17.270
   0.87144  0.13937  0.07533  1.33022  0.026676  0.001731 -0.002214    15.411
   0.88548  0.12576  0.07185  1.33196  0.023252  0.001703 -0.002272    13.656
   0.89921  0.11254  0.06815  1.33427  0.020039  0.001668 -0.002348    12.011
   0.91255  0.09978  0.06426  1.33737  0.017062  0.001627 -0.002450    10.489
   0.92536  0.08762  0.06020  1.34159  0.014353  0.001576 -0.002588     9.106
   0.93750  0.07622  0.05606  1.34730  0.011935  0.001516 -0.002780     7.871
   0.94879  0.06572  0.05190  1.35497  0.009835  0.001447 -0.003054     6.798
   0.95911  0.05625  0.04782  1.36511  0.008059  0.001368 -0.003433     5.890
   0.96837  0.04786  0.04389  1.37816  0.006599  0.001282 -0.003733     5.146
   0.97657  0.04055  0.04017  1.39435  0.005422  0.001191 -0.003441     4.551
   0.98379  0.03423  0.03668  1.41331  0.004488  0.001099 -0.001893     4.084
   0.99012  0.02879  0.03343  1.43441  0.003749  0.001008  0.001194     3.721
   0.99570  0.02411  0.03040  1.45718  0.003162  0.000919  0.005755     3.442
   1.00063  0.02008  0.02756  1.48076  0.002693  0.000834  0.011630     3.230
   1.00502  0.01660  0.02489  1.50423  0.002312  0.000755  0.018819     3.063
   1.00896  0.01357  0.02236  1.52663  0.002001  0.000682  0.027167     2.933
   1.01253  0.01095  0.01995  1.54729  0.001738  0.000616  0.037058     2.823
   1.01577  0.00867  0.01764  1.56516  0.001516  0.000555  0.048447     2.731
   1.01874  0.00671  0.01541  1.57920  0.001326  0.000500  0.061573     2.652
   1.02149  0.00502  0.01324  1.58800  0.001162  0.000450  0.076686     2.581
   1.02404  0.00360  0.01113  1.58957  0.001021  0.000405  0.093562     2.519
   1.02642  0.00242  0.00906  1.58156  0.000899  0.000365  0.112382     2.462
   1.02866  0.00148  0.00703  1.56064  0.000797  0.000331  0.131947     2.410
   1.03077  0.00077  0.00504  1.52351  0.000712  0.000301  0.151011     2.364
   1.03277  0.00029  0.00309  1.46720  0.000645  0.000277  0.166439     2.326
   1.03468  0.00004  0.00120  1.39126  0.000594  0.000258  0.175744     2.299
   1.03651  0.00001 -0.00064  1.29697  0.000555  0.000244  0.179429     2.275
   1.03838  0.00020 -0.00249  1.17817  0.000525  0.000233  0.175876     2.251
   1.04030  0.00065 -0.00436  1.03402  0.000509  0.000228  0.161622     2.235
   1.04230  0.00137 -0.00623  0.86958  0.000505  0.000228  0.139260     2.217
   1.04439  0.00239 -0.00805  0.69471  0.000521  0.000236  0.108407     2.212
   1.04657  0.00369 -0.00980  0.52375  0.000549  0.000248  0.077727     2.210
   1.04888  0.00527 -0.01148  0.36430  0.000586  0.000264  0.050273     2.218
   1.05132  0.00712 -0.01307  0.21805  0.000638  0.000289  0.027950     2.205
   1.05393  0.00925 -0.01459  0.09317  0.000729  0.000327  0.010223     2.230
   1.05675  0.01167 -0.01603 -0.01841  0.000729  0.000327  0.002021     2.230
   1.05979  0.01438 -0.01741 -0.11796  0.000847  0.000378  0.011003     2.243
   1.06312  0.01744 -0.01873 -0.20183  0.000934  0.000416  0.017016     2.247
   1.06679  0.02087 -0.02000 -0.27633  0.001024  0.000453  0.021021     2.259
   1.07086  0.02476 -0.02123 -0.34302  0.001121  0.000494  0.023658     2.267
   1.07542  0.02916 -0.02242 -0.40265  0.001233  0.000540  0.024940     2.281
   1.08058  0.03419 -0.02357 -0.45599  0.001357  0.000592  0.025406     2.291
   1.08647  0.03998 -0.02467 -0.50447  0.001490  0.000648  0.025372     2.300
   1.09325  0.04667 -0.02572 -0.54882  0.001638  0.000709  0.024856     2.311
   1.10108  0.05445 -0.02670 -0.58886  0.001809  0.000778  0.023848     2.325
   1.11013  0.06345 -0.02758 -0.62506  0.001992  0.000853  0.022762     2.334
   1.12048  0.07377 -0.02833 -0.65748  0.002195  0.000936  0.021486     2.346
   1.13215  0.08543 -0.02891 -0.68602  0.002414  0.001024  0.020165     2.357
   1.14504  0.09832 -0.02929 -0.71080  0.002643  0.001116  0.018889     2.368
   1.15896  0.11223 -0.02947 -0.73198  0.002880  0.001211  0.017669     2.378
   1.17368  0.12696 -0.02945 -0.74991  0.003121  0.001307  0.016548     2.388
   1.18901  0.14228 -0.02924 -0.76505  0.003361  0.001402  0.015538     2.397
   1.20480  0.15806 -0.02887 -0.77801  0.003594  0.001495  0.014679     2.403
   1.22092  0.17418 -0.02837 -0.78911  0.003824  0.001587  0.013896     2.410
   1.23731  0.19056 -0.02776 -0.79882  0.004045  0.001675  0.013236     2.415
   1.25391  0.20714 -0.02707 -0.80736  0.004261  0.001761  0.012641     2.420
   1.27067  0.22389 -0.02630 -0.81492  0.004470  0.001844  0.012112     2.424
   1.28758  0.24078 -0.02549 -0.82183  0.004666  0.001924  0.011679     2.425
   1.30460  0.25777 -0.02465 -0.82818  0.004855  0.002001  0.011297     2.427
   1.32169  0.27484 -0.02379 -0.83414  0.005032  0.002074  0.010982     2.426
   1.33881  0.29194 -0.02292 -0.83987  0.005194  0.002143  0.010741     2.424
   1.35590  0.30901 -0.02207 -0.84534  0.005348  0.002208  0.010522     2.422
   1.37294  0.32603 -0.02124 -0.85073  0.005485  0.002269  0.010369     2.417
   1.38994  0.34301 -0.02043 -0.85616  0.005605  0.002325  0.010282     2.411
   1.40689  0.35994 -0.01967 -0.86173  0.005707  0.002376  0.010250     2.402
   1.42382  0.37686 -0.01894 -0.86755  0.005790  0.002421  0.010279     2.392
   1.44075  0.39378 -0.01827 -0.87386  0.005845  0.002459  0.010406     2.377
   1.45775  0.41076 -0.01762 -0.88077  0.005876  0.002490  0.010612     2.360
   1.47481  0.42781 -0.01697 -0.88741  0.005940  0.002524  0.010643     2.353
   1.49192  0.44491 -0.01629 -0.89372  0.006023  0.002560  0.010579     2.353
   1.50907  0.46204 -0.01560 -0.89974  0.006113  0.002597  0.010481     2.354
   1.52625  0.47921 -0.01490 -0.90548  0.006207  0.002634  0.010365     2.356
   1.54344  0.49639 -0.01420 -0.91098  0.006301  0.002672  0.010248     2.359
   1.56064  0.51357 -0.01350 -0.91629  0.006394  0.002709  0.010140     2.360
   1.57783  0.53074 -0.01280 -0.92148  0.006479  0.002744  0.010056     2.361
   1.59499  0.54790 -0.01211 -0.92658  0.006560  0.002779  0.009989     2.361
   1.61214  0.56503 -0.01143 -0.93163  0.006633  0.002811  0.009946     2.360
   1.62928  0.58215 -0.01076 -0.93666  0.006701  0.002842  0.009916     2.358
   1.64639  0.59926 -0.01011 -0.94172  0.006761  0.002872  0.009913     2.354
   1.66350  0.61635 -0.00947 -0.94683  0.006813  0.002899  0.009928     2.350
   1.68058  0.63342 -0.00885 -0.95205  0.006856  0.002923  0.009972     2.345
   1.69766  0.65049 -0.00825 -0.95737  0.006893  0.002946  0.010028     2.340
   1.71473  0.66755 -0.00768 -0.96284  0.006921  0.002966  0.010108     2.333
   1.73178  0.68459 -0.00712 -0.96849  0.006939  0.002984  0.010212     2.326
   1.74883  0.70164 -0.00659 -0.97430  0.006953  0.002999  0.010326     2.318
   1.76588  0.71867 -0.00608 -0.98039  0.006954  0.003011  0.010478     2.309
   1.78292  0.73570 -0.00560 -0.98671  0.006949  0.003021  0.010643     2.300
   1.79995  0.75273 -0.00514 -0.99334  0.006933  0.003027  0.010839     2.290
   1.81698  0.76976 -0.00471 -1.00027  0.006910  0.003031  0.011056     2.280
   1.83401  0.78678 -0.00431 -1.00761  0.006875  0.003031  0.011312     2.269
   1.85104  0.80381 -0.00393 -1.01535  0.006833  0.003027  0.011593     2.257
   1.86807  0.82084 -0.00357 -1.02361  0.006776  0.003019  0.011924     2.244
   1.88510  0.83786 -0.00324 -1.03240  0.006710  0.003008  0.012292     2.231
   1.90213  0.85489 -0.00294 -1.04189  0.006628  0.002991  0.012727     2.216
   1.91914  0.87190 -0.00266 -1.05211  0.006533  0.002969  0.013220     2.200
   1.93613  0.88889 -0.00241 -1.06323  0.006422  0.002941  0.013793     2.183
   1.95305  0.90581 -0.00218 -1.07549  0.006289  0.002906  0.014487     2.164
   1.96983  0.92258 -0.00197 -1.08904  0.006135  0.002863  0.015313     2.143
   1.98627  0.93902 -0.00179 -1.10414  0.005954  0.002810  0.016325     2.119
   2.00209  0.95483 -0.00163 -1.12105  0.005740  0.002745  0.017595     2.091
   2.01678  0.96953 -0.00150 -1.13971  0.005496  0.002668  0.019164     2.060
   2.02984  0.98258 -0.00139 -1.16056  0.005207  0.002576  0.021235     2.022
   2.04093  0.99368 -0.00131 -1.18309  0.004895  0.002473  0.023789     1.980
   2.04725  1.00000 -0.00126 -1.20771  0.004456  0.002335  0.028142     1.908
   2.04725  1.00010 -0.00001  1.20771  0.340627  0.027311  0.000000    12.472
   2.05356  1.00636 -0.00078  1.20639  0.341036  0.027744  0.000000    12.292
   2.06096  1.01373 -0.00149  1.20473  0.341298  0.028293  0.000000    12.063
   2.06964  1.02237 -0.00219  1.20277  0.341516  0.028942  0.000000    11.800
   2.07981  1.03253 -0.00287  1.20046  0.341658  0.029709  0.000000    11.500
   2.09174  1.04444 -0.00352  1.19775  0.341689  0.030617  0.000000    11.160
   2.10574  1.05842 -0.00412  1.19457  0.341559  0.031693  0.000000    10.777
   2.12215  1.07482 -0.00463  1.19082  0.341201  0.032969  0.000000    10.349
   2.14139  1.09406 -0.00499  1.18641  0.340526  0.034486  0.000000     9.874
   2.16396  1.11663 -0.00516  1.18120  0.339413  0.036293  0.000000     9.352
   2.19042  1.14309 -0.00502  1.17506  0.337706  0.038450  0.000000     8.783
   2.22145  1.17412 -0.00449  1.16779  0.335198  0.041033  0.000000     8.169
   2.25784  1.21050 -0.00341  1.15916  0.331622  0.044139  0.000000     7.513
   2.30052  1.25314 -0.00161  1.14889  0.326631  0.047891  0.000000     6.820
   2.35057  1.30311  0.00114  1.13658  0.319779  0.052458  0.000000     6.096
   2.40926  1.36166  0.00510  1.12169  0.310506  0.058080  0.000000     5.346
   2.47809  1.43027  0.01063  1.10333  0.298134  0.065151  0.000000     4.576
   2.55880  1.51063  0.01813  1.07963  0.281968  0.074509  0.000000     3.784
   2.65345  1.60475  0.02810  1.05096  0.260827  0.086179  0.000000     3.027
   2.76445  1.71498  0.04116  1.03013  0.232077  0.094751  0.000000     2.449
   2.89461  1.84405  0.05801  1.02248  0.194237  0.097778  0.000000     1.987
   3.04725  1.99517  0.07952  1.10711  0.104769  0.072779  0.000000     1.440
