#    s        x        y     Ue/Vinf    Dstar     Theta      Cf       H
   0.00000  1.00000  0.00126  1.03903  0.056523  0.002401 -0.000238    23.544
   0.00630  0.99392  0.00292  1.03902  0.055656  0.002403 -0.000408    23.166
   0.01727  0.98333  0.00577  1.03899  0.054067  0.002407 -0.000407    22.466
   0.03004  0.97098  0.00904  1.03894  0.052180  0.002412 -0.000407    21.635
   0.04430  0.95718  0.01262  1.03888  0.050064  0.002418 -0.000407    20.706
   0.05958  0.94237  0.01638  1.03881  0.047800  0.002424 -0.000406    19.719
   0.07546  0.92696  0.02021  1.03875  0.045463  0.002430 -0.000406    18.707
   0.09164  0.91123  0.02403  1.03869  0.043105  0.002436 -0.000406    17.695
   0.10799  0.89533  0.02780  1.03864  0.040762  0.002441 -0.000407    16.698
   0.12441  0.87933  0.03149  1.03861  0.038448  0.002446 -0.000407    15.722
   0.14087  0.86327  0.03511  1.03861  0.036179  0.002449 -0.000408    14.774
   0.15734  0.84718  0.03864  1.03863  0.033959  0.002451 -0.000410    13.856
   0.17383  0.83106  0.04208  1.03870  0.031796  0.002452 -0.000412    12.969
   0.19032  0.81492  0.04544  1.03882  0.029694  0.002451 -0.000415    12.116
   0.20680  0.79875  0.04870  1.03900  0.027658  0.002448 -0.000418    11.298
   0.22329  0.78258  0.05188  1.03927  0.025690  0.002443 -0.000422    10.515
   0.23978  0.76638  0.05496  1.03963  0.023796  0.002436 -0.000428     9.768
   0.25626  0.75017  0.05796  1.04012  0.021978  0.002426 -0.000435     9.058
   0.27274  0.73395  0.06086  1.04076  0.020243  0.002414 -0.000444     8.387
   0.28921  0.71772  0.06368  1.04158  0.018592  0.002398 -0.000455     7.753
   0.30568  0.70148  0.06640  1.04264  0.017030  0.002379 -0.000469     7.160
   0.32214  0.68523  0.06902  1.04396  0.015559  0.002355 -0.000487     6.605
   0.33859  0.66898  0.07155  1.04562  0.014186  0.002328 -0.000508     6.093
   0.35503  0.65272  0.07398  1.04766  0.012910  0.002297 -0.000531     5.621
   0.37146  0.63645  0.07632  1.05017  0.011736  0.002260 -0.000539     5.192
   0.38788  0.62019  0.07855  1.05319  0.010665  0.002219 -0.000521     4.806
   0.40429  0.60392  0.08069  1.05677  0.009698  0.002173 -0.000447     4.462
   0.42068  0.58766  0.08272  1.06086  0.008830  0.002124 -0.000299     4.158
   0.43705  0.57140  0.08465  1.06542  0.008062  0.002071 -0.000072     3.893
   0.45341  0.55514  0.08647  1.07053  0.007387  0.002014  0.000229     3.668
   0.46975  0.53889  0.08818  1.07614  0.006799  0.001953  0.000584     3.480
   0.48606  0.52265  0.08978  1.08213  0.006288  0.001890  0.000978     3.327
   0.50236  0.50642  0.09127  1.08833  0.005847  0.001826  0.001392     3.201
   0.51863  0.49021  0.09264  1.09459  0.005463  0.001762  0.001814     3.100
   0.53487  0.47402  0.09390  1.10079  0.005125  0.001699  0.002239     3.016
   0.55108  0.45785  0.09503  1.10689  0.004821  0.001637  0.002676     2.945
   0.56725  0.44172  0.09603  1.11280  0.004543  0.001576  0.003128     2.883
   0.58335  0.42564  0.09690  1.11854  0.004280  0.001516  0.003619     2.824
   0.59935  0.40965  0.09765  1.12408  0.004025  0.001456  0.004183     2.765
   0.61519  0.39382  0.09824  1.12949  0.003760  0.001395  0.004913     2.695
   0.63085  0.37817  0.09865  1.13375  0.003534  0.001339  0.005610     2.640
   0.64639  0.36263  0.09885  1.13677  0.003342  0.001287  0.006252     2.597
   0.66187  0.34716  0.09884  1.13864  0.003172  0.001238  0.006865     2.561
   0.67728  0.33174  0.09863  1.13935  0.003020  0.001192  0.007450     2.533
   0.69264  0.31639  0.09821  1.13891  0.002881  0.001149  0.008014     2.508
   0.70795  0.30109  0.09757  1.13732  0.002753  0.001107  0.008566     2.487
   0.72321  0.28586  0.09672  1.13455  0.002633  0.001066  0.009101     2.469
   0.73841  0.27069  0.09564  1.13059  0.002520  0.001027  0.009640     2.453
   0.75355  0.25561  0.09433  1.12533  0.002413  0.000989  0.010160     2.440
   0.76863  0.24061  0.09280  1.11879  0.002310  0.000952  0.010687     2.427
   0.78363  0.22571  0.09103  1.11083  0.002211  0.000915  0.011219     2.416
   0.79855  0.21092  0.08902  1.10134  0.002115  0.000879  0.011742     2.406
   0.81339  0.19626  0.08678  1.09027  0.002021  0.000843  0.012288     2.396
   0.82811  0.18175  0.08429  1.07736  0.001929  0.000808  0.012814     2.388
   0.84271  0.16741  0.08155  1.06259  0.001837  0.000772  0.013395     2.379
   0.85717  0.15327  0.07856  1.04551  0.001748  0.000737  0.013932     2.373
   0.87144  0.13937  0.07533  1.02616  0.001657  0.000701  0.014537     2.365
   0.88548  0.12576  0.07185  1.00399  0.001568  0.000665  0.015134     2.358
   0.89921  0.11254  0.06815  0.97878  0.001478  0.000629  0.015741     2.352
   0.91255  0.09978  0.06426  0.95024  0.001388  0.000592  0.016390     2.345
   0.92536  0.08762  0.06020  0.91793  0.001299  0.000555  0.017025     2.339
   0.93750  0.07622  0.05606  0.88176  0.001210  0.000519  0.017656     2.332
   0.94879  0.06572  0.05190  0.84165  0.001124  0.000483  0.018280     2.325
   0.95911  0.05625  0.04782  0.79766  0.001041  0.000449  0.018827     2.318
   0.96837  0.04786  0.04389  0.75008  0.000961  0.000416  0.019311     2.310
   0.97657  0.04055  0.04017  0.69901  0.000888  0.000386  0.019617     2.303
   0.98379  0.03423  0.03668  0.64468  0.000820  0.000357  0.019754     2.295
   0.99012  0.02879  0.03343  0.58700  0.000757  0.000331  0.019594     2.288
   0.99570  0.02411  0.03040  0.52584  0.000699  0.000307  0.019141     2.280
   1.00063  0.02008  0.02756  0.46038  0.000645  0.000284  0.018332     2.271
   1.00502  0.01660  0.02489  0.38939  0.000596  0.000264  0.016960     2.259
   1.00896  0.01357  0.02236  0.31364  0.000552  0.000244  0.014677     2.264
   1.01253  0.01095  0.01995  0.23013  0.000506  0.000226  0.012085     2.234
   1.01577  0.00867  0.01764  0.13939  0.000476  0.000212  0.007660     2.250
   1.01874  0.00671  0.01541  0.03812  0.000414  0.000186  0.002453     2.230
   1.02149  0.00502  0.01324 -0.07419  0.000414  0.000186  0.004773     2.230
   1.02404  0.00360  0.01113 -0.19577  0.000370  0.000168  0.014329     2.211
   1.02642  0.00242  0.00906 -0.33389  0.000343  0.000155  0.026179     2.218
   1.02866  0.00148  0.00703 -0.48198  0.000324  0.000146  0.040265     2.212
   1.03077  0.00077  0.00504 -0.64215  0.000305  0.000138  0.057286     2.207
   1.03277  0.00029  0.00309 -0.80989  0.000292  0.000132  0.074999     2.212
   1.03468  0.00004  0.00120 -0.97800  0.000285  0.000129  0.092341     2.217
   1.03651  0.00001 -0.00064 -1.14236  0.000282  0.000127  0.108678     2.222
   1.03838  0.00020 -0.00249 -1.30473  0.000285  0.000127  0.121627     2.235
   1.04030  0.00065 -0.00436 -1.45438  0.000296  0.000131  0.127562     2.259
   1.04230  0.00137 -0.00623 -1.57622  0.000320  0.000139  0.123224     2.299
   1.04439  0.00239 -0.00805 -1.66322  0.000357  0.000152  0.111368     2.347
   1.04657  0.00369 -0.00980 -1.71410  0.000410  0.000170  0.093374     2.414
   1.04888  0.00527 -0.01148 -1.73361  0.000483  0.000193  0.073518     2.499
   1.05132  0.00712 -0.01307 -1.72977  0.000576  0.000221  0.054646     2.605
   1.05393  0.00925 -0.01459 -1.71014  0.000697  0.000254  0.037935     2.741
   1.05675  0.01167 -0.01603 -1.68112  0.000851  0.000292  0.023923     2.919
   1.05979  0.01438 -0.01741 -1.64777  0.001055  0.000333  0.012494     3.167
   1.06312  0.01744 -0.01873 -1.61482  0.001320  0.000376  0.004090     3.509
   1.06679  0.02087 -0.02000 -1.58568  0.001667  0.000418 -0.001203     3.983
   1.07086  0.02476 -0.02123 -1.56142  0.002112  0.000459 -0.003437     4.602
   1.07542  0.02916 -0.02242 -1.54225  0.002675  0.000497 -0.003621     5.384
   1.08058  0.03419 -0.02357 -1.52778  0.003371  0.000531 -0.003205     6.347
   1.08647  0.03998 -0.02467 -1.51688  0.004216  0.000562 -0.002848     7.500
   1.09325  0.04667 -0.02572 -1.50854  0.005228  0.000591 -0.002602     8.853
   1.10108  0.05445 -0.02670 -1.50203  0.006416  0.000617 -0.002422    10.407
   1.11013  0.06345 -0.02758 -1.49678  0.007777  0.000641 -0.002283    12.133
   1.12048  0.07377 -0.02833 -1.49239  0.009287  0.000665 -0.002170    13.972
   1.13215  0.08543 -0.02891 -1.48856  0.010893  0.000689 -0.002073    15.821
   1.14504  0.09832 -0.02929 -1.48505  0.012517  0.000713 -0.001985    17.543
   1.15896  0.11223 -0.02947 -1.48174  0.014057  0.000740 -0.001902    18.989
   1.17368  0.12696 -0.02945 -1.47849  0.015407  0.000770 -0.001821    20.018
   1.18901  0.14228 -0.02924 -1.47518  0.016450  0.000803 -0.001741    20.497
   1.20480  0.15806 -0.02887 -1.47166  0.017034  0.000840 -0.001659    20.271
   1.22092  0.17418 -0.02837 -1.39243  0.017562  0.002043 -0.000426     8.596
   1.23731  0.19056 -0.02776 -1.33374  0.017615  0.003034 -0.000378     5.806
   1.25391  0.20714 -0.02707 -1.28302  0.017442  0.003992 -0.000230     4.369
   1.27067  0.22389 -0.02630 -1.24198  0.017142  0.004844  0.000217     3.539
   1.28758  0.24078 -0.02549 -1.21146  0.016781  0.005528  0.000729     3.036
   1.30460  0.25777 -0.02465 -1.18684  0.016429  0.006114  0.001193     2.687
   1.32169  0.27484 -0.02379 -1.16719  0.016107  0.006607  0.001581     2.438
   1.33881  0.29194 -0.02292 -1.15132  0.015824  0.007023  0.001899     2.253
   1.35590  0.30901 -0.02207 -1.13828  0.015587  0.007380  0.002155     2.112
   1.37294  0.32603 -0.02124 -1.12745  0.015386  0.007687  0.002508     2.002
   1.38994  0.34301 -0.02043 -1.11840  0.015215  0.007955  0.002830     1.913
   1.40689  0.35994 -0.01967 -1.11077  0.015066  0.008189  0.003123     1.840
   1.42382  0.37686 -0.01894 -1.10438  0.014928  0.008394  0.003392     1.779
   1.44075  0.39378 -0.01827 -1.09916  0.014787  0.008569  0.003645     1.726
   1.45775  0.41076 -0.01762 -1.09496  0.014640  0.008718  0.003886     1.679
   1.47481  0.42781 -0.01697 -1.09079  0.014554  0.008869  0.004088     1.641
   1.49192  0.44491 -0.01629 -1.08674  0.014512  0.009020  0.004259     1.609
   1.50907  0.46204 -0.01560 -1.08276  0.014506  0.009172  0.004402     1.582
   1.52625  0.47921 -0.01490 -1.07889  0.014527  0.009323  0.004523     1.558
   1.54344  0.49639 -0.01420 -1.07510  0.014571  0.009474  0.004623     1.538
   1.56064  0.51357 -0.01350 -1.07141  0.014634  0.009625  0.004706     1.520
   1.57783  0.53074 -0.01280 -1.06785  0.014709  0.009773  0.004775     1.505
   1.59499  0.54790 -0.01211 -1.06443  0.014795  0.009920  0.004834     1.491
   1.61214  0.56503 -0.01143 -1.06111  0.014890  0.010066  0.004882     1.479
   1.62928  0.58215 -0.01076 -1.05794  0.014990  0.010209  0.004922     1.468
   1.64639  0.59926 -0.01011 -1.05490  0.015095  0.010349  0.004956     1.459
   1.66350  0.61635 -0.00947 -1.05200  0.015201  0.010486  0.004984     1.450
   1.68058  0.63342 -0.00885 -1.04926  0.015308  0.010620  0.005009     1.441
   1.69766  0.65049 -0.00825 -1.04666  0.015415  0.010750  0.005030     1.434
   1.71473  0.66755 -0.00768 -1.04422  0.015520  0.010876  0.005049     1.427
   1.73178  0.68459 -0.00712 -1.04191  0.015623  0.010999  0.005065     1.421
   1.74883  0.70164 -0.00659 -1.03978  0.015722  0.011116  0.005081     1.414
   1.76588  0.71867 -0.00608 -1.03780  0.015818  0.011229  0.005096     1.409
   1.78292  0.73570 -0.00560 -1.03597  0.015909  0.011337  0.005110     1.403
   1.79995  0.75273 -0.00514 -1.03431  0.015995  0.011440  0.005125     1.398
   1.81698  0.76976 -0.00471 -1.03280  0.016075  0.011538  0.005140     1.393
   1.83401  0.78678 -0.00431 -1.03146  0.016149  0.011630  0.005155     1.389
   1.85104  0.80381 -0.00393 -1.03031  0.016214  0.011715  0.005172     1.384
   1.86807  0.82084 -0.00357 -1.02931  0.016272  0.011795  0.005190     1.380
   1.88510  0.83786 -0.00324 -1.02850  0.016322  0.011869  0.005210     1.375
   1.90213  0.85489 -0.00294 -1.02792  0.016359  0.011933  0.005233     1.371
   1.91914  0.87190 -0.00266 -1.02750  0.016390  0.011992  0.005257     1.367
   1.93613  0.88889 -0.00241 -1.02735  0.016405  0.012040  0.005286     1.363
   1.95305  0.90581 -0.00218 -1.02743  0.016408  0.012080  0.005318     1.358
   1.96983  0.92258 -0.00197 -1.02783  0.016392  0.012106  0.005356     1.354
   1.98627  0.93902 -0.00179 -1.02856  0.016357  0.012120  0.005399     1.350
   2.00209  0.95483 -0.00163 -1.02966  0.016300  0.012117  0.005449     1.345
   2.01678  0.96953 -0.00150 -1.03116  0.016218  0.012096  0.005506     1.341
   2.02984  0.98258 -0.00139 -1.03309  0.016109  0.012054  0.005570     1.336
   2.04093  0.99368 -0.00131 -1.03513  0.015993  0.012004  0.005634     1.332
   2.04725  1.00000 -0.00126 -1.03903  0.015751  0.011871  0.005742     1.327
   2.04725  1.00010 -0.00001  1.03903  0.074750  0.014272  0.000000     5.238
   2.05356  1.00636 -0.00083  1.03711  0.074148  0.014463  0.000000     5.127
   2.06096  1.01370 -0.00169  1.03415  0.073270  0.014757  0.000000     4.965
   2.06964  1.02233 -0.00267  1.03055  0.072173  0.015115  0.000000     4.775
   2.07981  1.03244 -0.00377  1.02613  0.070818  0.015554  0.000000     4.553
   2.09174  1.04431 -0.00502  1.02063  0.069163  0.016100  0.000000     4.296
   2.10574  1.05823 -0.00645  1.01368  0.067159  0.016791  0.000000     4.000
   2.12215  1.07455 -0.00808  1.00474  0.064764  0.017681  0.000000     3.663
   2.14139  1.09371 -0.00993  0.99451  0.061897  0.018703  0.000000     3.309
   2.16396  1.11618 -0.01203  0.98514  0.058481  0.019635  0.000000     2.978
   2.19042  1.14253 -0.01443  0.97646  0.054579  0.020492  0.000000     2.663
   2.22145  1.17344 -0.01717  0.96927  0.050284  0.021188  0.000000     2.373
   2.25784  1.20970 -0.02028  0.96438  0.045769  0.021647  0.000000     2.114
   2.30052  1.25223 -0.02384  0.96233  0.041279  0.021833  0.000000     1.891
   2.35057  1.30211 -0.02789  0.96312  0.037075  0.021764  0.000000     1.703
   2.40926  1.36062 -0.03252  0.96618  0.033365  0.021515  0.000000     1.551
   2.47809  1.42924 -0.03780  0.97057  0.030252  0.021178  0.000000     1.428
   2.55880  1.50973 -0.04385  0.97536  0.027734  0.020828  0.000000     1.332
   2.65345  1.60413 -0.05078  0.97992  0.025743  0.020511  0.000000     1.255
   2.76445  1.71484 -0.05873  0.98392  0.024187  0.020243  0.000000     1.195
   2.89461  1.84468 -0.06787  0.98727  0.022984  0.020026  0.000000     1.148
   3.04725  1.99696 -0.07838  0.99248  0.021874  0.019699  0.000000     1.110
