#    s        x        y     Ue/Vinf    Dstar     Theta      Cf       H
   0.00000  1.00000  0.00126  1.00041  0.050741  0.011238 -0.000085     4.515
   0.00630  0.99392  0.00292  1.00419  0.050083  0.010964 -0.000091     4.568
   0.01727  0.98333  0.00577  1.01103  0.048892  0.010483 -0.000100     4.664
   0.03004  0.97098  0.00904  1.01947  0.047563  0.009913 -0.000113     4.798
   0.04430  0.95718  0.01262  1.02956  0.046164  0.009264 -0.000127     4.983
   0.05958  0.94237  0.01638  1.04123  0.044767  0.008552 -0.000142     5.235
   0.07546  0.92696  0.02021  1.05439  0.043417  0.007793 -0.000158     5.571
   0.09164  0.91123  0.02403  1.06906  0.042137  0.006998 -0.000174     6.021
   0.10799  0.89533  0.02780  1.08538  0.040926  0.006170 -0.000193     6.633
   0.12441  0.87933  0.03149  1.10390  0.039754  0.005293 -0.000220     7.510
   0.14087  0.86327  0.03511  1.12493  0.038593  0.004371 -0.000262     8.830
   0.15734  0.84718  0.03864  1.14950  0.037370  0.003378 -0.000291    11.063
   0.17383  0.83106  0.04208  1.17916  0.035967  0.002285 -0.000495    15.740
   0.19032  0.81492  0.04544  1.17959  0.035075  0.002273 -0.000498    15.429
   0.20680  0.79875  0.04870  1.17998  0.034010  0.002263 -0.000501    15.026
   0.22329  0.78258  0.05188  1.18035  0.032828  0.002254 -0.000505    14.561
   0.23978  0.76638  0.05496  1.18072  0.031566  0.002246 -0.000508    14.053
   0.25626  0.75017  0.05796  1.18109  0.030246  0.002238 -0.000511    13.515
   0.27274  0.73395  0.06086  1.18148  0.028887  0.002230 -0.000515    12.954
   0.28921  0.71772  0.06368  1.18189  0.027500  0.002221 -0.000519    12.379
   0.30568  0.70148  0.06640  1.18235  0.026097  0.002213 -0.000524    11.795
   0.32214  0.68523  0.06902  1.18285  0.024686  0.002203 -0.000529    11.206
   0.33859  0.66898  0.07155  1.18343  0.023277  0.002192 -0.000535    10.618
   0.35503  0.65272  0.07398  1.18409  0.021877  0.002180 -0.000542    10.033
   0.37146  0.63645  0.07632  1.18485  0.020493  0.002167 -0.000551     9.456
   0.38788  0.62019  0.07855  1.18574  0.019131  0.002152 -0.000561     8.889
   0.40429  0.60392  0.08069  1.18680  0.017799  0.002135 -0.000572     8.336
   0.42068  0.58766  0.08272  1.18804  0.016500  0.002116 -0.000587     7.797
   0.43705  0.57140  0.08465  1.18953  0.015245  0.002095 -0.000604     7.279
   0.45341  0.55514  0.08647  1.19131  0.014035  0.002070 -0.000626     6.780
   0.46975  0.53889  0.08818  1.19343  0.012878  0.002042 -0.000653     6.305
   0.48606  0.52265  0.08978  1.19599  0.011776  0.002011 -0.000684     5.856
   0.50236  0.50642  0.09127  1.19905  0.010738  0.001976 -0.000708     5.434
   0.51863  0.49021  0.09264  1.20272  0.009765  0.001937 -0.000712     5.041
   0.53487  0.47402  0.09390  1.20706  0.008861  0.001893 -0.000669     4.680
   0.55108  0.45785  0.09503  1.21214  0.008023  0.001846 -0.000538     4.347
   0.56725  0.44172  0.09603  1.21790  0.007254  0.001795 -0.000287     4.042
   0.58335  0.42564  0.09690  1.22440  0.006552  0.001740  0.000111     3.766
   0.59935  0.40965  0.09765  1.23175  0.005910  0.001680  0.000674     3.519
   0.61519  0.39382  0.09824  1.23997  0.005318  0.001615  0.001435     3.293
   0.63085  0.37817  0.09865  1.24855  0.004829  0.001549  0.002270     3.117
   0.64639  0.36263  0.09885  1.25700  0.004426  0.001484  0.003127     2.982
   0.66187  0.34716  0.09884  1.26495  0.004092  0.001422  0.003974     2.878
   0.67728  0.33174  0.09863  1.27214  0.003811  0.001363  0.004796     2.797
   0.69264  0.31639  0.09821  1.27844  0.003571  0.001307  0.005591     2.732
   0.70795  0.30109  0.09757  1.28374  0.003362  0.001254  0.006353     2.681
   0.72321  0.28586  0.09672  1.28800  0.003179  0.001204  0.007085     2.640
   0.73841  0.27069  0.09564  1.29124  0.003013  0.001156  0.007799     2.605
   0.75355  0.25561  0.09433  1.29342  0.002862  0.001111  0.008494     2.577
   0.76863  0.24061  0.09280  1.29457  0.002722  0.001067  0.009192     2.552
   0.78363  0.22571  0.09103  1.29458  0.002592  0.001024  0.009868     2.532
   0.79855  0.21092  0.08902  1.29352  0.002469  0.000982  0.010554     2.514
   0.81339  0.19626  0.08678  1.29133  0.002351  0.000941  0.011259     2.498
   0.82811  0.18175  0.08429  1.28786  0.002239  0.000901  0.011950     2.485
   0.84271  0.16741  0.08155  1.28323  0.002128  0.000861  0.012695     2.473
   0.85717  0.15327  0.07856  1.27716  0.002021  0.000821  0.013447     2.462
   0.87144  0.13937  0.07533  1.26966  0.001916  0.000781  0.014241     2.453
   0.88548  0.12576  0.07185  1.26059  0.001811  0.000741  0.015091     2.444
   0.89921  0.11254  0.06815  1.24978  0.001707  0.000701  0.015999     2.437
   0.91255  0.09978  0.06426  1.23709  0.001605  0.000660  0.016973     2.429
   0.92536  0.08762  0.06020  1.22243  0.001502  0.000620  0.018031     2.423
   0.93750  0.07622  0.05606  1.20572  0.001401  0.000580  0.019198     2.416
   0.94879  0.06572  0.05190  1.18689  0.001303  0.000541  0.020462     2.410
   0.95911  0.05625  0.04782  1.16602  0.001208  0.000503  0.021841     2.402
   0.96837  0.04786  0.04389  1.14316  0.001118  0.000467  0.023272     2.396
   0.97657  0.04055  0.04017  1.11852  0.001033  0.000432  0.024869     2.388
   0.98379  0.03423  0.03668  1.09177  0.000954  0.000401  0.026494     2.380
   0.99012  0.02879  0.03343  1.06300  0.000882  0.000371  0.028089     2.373
   0.99570  0.02411  0.03040  1.03215  0.000813  0.000344  0.029849     2.364
   1.00063  0.02008  0.02756  0.99839  0.000749  0.000318  0.031634     2.354
   1.00502  0.01660  0.02489  0.96108  0.000690  0.000295  0.033448     2.342
   1.00896  0.01357  0.02236  0.91961  0.000637  0.000273  0.034864     2.336
   1.01253  0.01095  0.01995  0.87361  0.000584  0.000252  0.036675     2.320
   1.01577  0.00867  0.01764  0.82091  0.000538  0.000233  0.037681     2.312
   1.01874  0.00671  0.01541  0.76139  0.000494  0.000215  0.038588     2.299
   1.02149  0.00502  0.01324  0.69239  0.000453  0.000198  0.038795     2.284
   1.02404  0.00360  0.01113  0.61287  0.000417  0.000183  0.037535     2.277
   1.02642  0.00242  0.00906  0.52168  0.000382  0.000169  0.035273     2.263
   1.02866  0.00148  0.00703  0.41563  0.000353  0.000157  0.030797     2.249
   1.03077  0.00077  0.00504  0.29552  0.000331  0.000147  0.023547     2.243
   1.03277  0.00029  0.00309  0.16271  0.000311  0.000139  0.013900     2.233
   1.03468  0.00004  0.00120  0.01817  0.000294  0.000132  0.001648     2.230
   1.03651  0.00001 -0.00064 -0.13087  0.000294  0.000132  0.011876     2.230
   1.03838  0.00020 -0.00249 -0.28973  0.000284  0.000128  0.027346     2.223
   1.04030  0.00065 -0.00436 -0.45423  0.000288  0.000129  0.041697     2.238
   1.04230  0.00137 -0.00623 -0.60835  0.000302  0.000135  0.052772     2.248
   1.04439  0.00239 -0.00805 -0.74643  0.000323  0.000143  0.059988     2.260
   1.04657  0.00369 -0.00980 -0.86091  0.000355  0.000155  0.061411     2.287
   1.04888  0.00527 -0.01148 -0.94941  0.000396  0.000171  0.059068     2.314
   1.05132  0.00712 -0.01307 -1.01658  0.000445  0.000190  0.055099     2.338
   1.05393  0.00925 -0.01459 -1.06646  0.000501  0.000212  0.049968     2.366
   1.05675  0.01167 -0.01603 -1.10231  0.000564  0.000236  0.044461     2.396
   1.05979  0.01438 -0.01741 -1.12762  0.000635  0.000262  0.039279     2.425
   1.06312  0.01744 -0.01873 -1.14486  0.000714  0.000291  0.034431     2.454
   1.06679  0.02087 -0.02000 -1.15618  0.000799  0.000322  0.030175     2.482
   1.07086  0.02476 -0.02123 -1.16300  0.000893  0.000356  0.026397     2.509
   1.07542  0.02916 -0.02242 -1.16612  0.000996  0.000393  0.022981     2.538
   1.08058  0.03419 -0.02357 -1.16616  0.001112  0.000433  0.019917     2.567
   1.08647  0.03998 -0.02467 -1.16389  0.001239  0.000478  0.017303     2.595
   1.09325  0.04667 -0.02572 -1.15944  0.001383  0.000527  0.014911     2.625
   1.10108  0.05445 -0.02670 -1.15316  0.001544  0.000581  0.012812     2.656
   1.11013  0.06345 -0.02758 -1.14527  0.001724  0.000641  0.010959     2.688
   1.12048  0.07377 -0.02833 -1.13616  0.001923  0.000707  0.009369     2.720
   1.13215  0.08543 -0.02891 -1.12613  0.002141  0.000778  0.007996     2.753
   1.14504  0.09832 -0.02929 -1.11563  0.002374  0.000852  0.006844     2.786
   1.15896  0.11223 -0.02947 -1.10502  0.002618  0.000929  0.005884     2.819
   1.17368  0.12696 -0.02945 -1.09459  0.002870  0.001006  0.005087     2.852
   1.18901  0.14228 -0.02924 -1.08452  0.003126  0.001084  0.004427     2.883
   1.20480  0.15806 -0.02887 -1.07502  0.003378  0.001161  0.003901     2.911
   1.22092  0.17418 -0.02837 -1.06604  0.003631  0.001236  0.003458     2.938
   1.23731  0.19056 -0.02776 -1.05765  0.003877  0.001309  0.003102     2.961
   1.25391  0.20714 -0.02707 -1.04982  0.004118  0.001381  0.002809     2.981
   1.27067  0.22389 -0.02630 -1.04253  0.004350  0.001451  0.002573     2.998
   1.28758  0.24078 -0.02549 -1.03576  0.004573  0.001519  0.002381     3.011
   1.30460  0.25777 -0.02465 -1.02952  0.004781  0.001584  0.002240     3.018
   1.32169  0.27484 -0.02379 -1.02375  0.004977  0.001647  0.002128     3.021
   1.33881  0.29194 -0.02292 -1.01851  0.005153  0.001708  0.002058     3.017
   1.35590  0.30901 -0.02207 -1.01374  0.005311  0.001766  0.002015     3.008
   1.37294  0.32603 -0.02124 -1.00946  0.005448  0.001820  0.002004     2.993
   1.38994  0.34301 -0.02043 -1.00568  0.005562  0.001872  0.002022     2.972
   1.40689  0.35994 -0.01967 -1.00240  0.005650  0.001920  0.002071     2.944
   1.42382  0.37686 -0.01894 -0.99966  0.005712  0.001964  0.002152     2.909
   1.44075  0.39378 -0.01827 -0.99754  0.005739  0.002003  0.002273     2.865
   1.45775  0.41076 -0.01762 -0.99608  0.005736  0.002037  0.002434     2.815
   1.47481  0.42781 -0.01697 -0.99464  0.005770  0.002073  0.002520     2.784
   1.49192  0.44491 -0.01629 -0.99323  0.005827  0.002109  0.002561     2.763
   1.50907  0.46204 -0.01560 -0.99181  0.005901  0.002146  0.002567     2.750
   1.52625  0.47921 -0.01490 -0.99040  0.005986  0.002183  0.002552     2.742
   1.54344  0.49639 -0.01420 -0.98897  0.006080  0.002220  0.002522     2.738
   1.56064  0.51357 -0.01350 -0.98755  0.006179  0.002258  0.002481     2.737
   1.57783  0.53074 -0.01280 -0.98614  0.006280  0.002295  0.002438     2.737
   1.59499  0.54790 -0.01211 -0.98478  0.006380  0.002331  0.002397     2.737
   1.61214  0.56503 -0.01143 -0.98345  0.006480  0.002367  0.002355     2.737
   1.62928  0.58215 -0.01076 -0.98217  0.006577  0.002403  0.002318     2.737
   1.64639  0.59926 -0.01011 -0.98095  0.006670  0.002437  0.002285     2.736
   1.66350  0.61635 -0.00947 -0.97980  0.006759  0.002471  0.002256     2.735
   1.68058  0.63342 -0.00885 -0.97873  0.006841  0.002504  0.002236     2.732
   1.69766  0.65049 -0.00825 -0.97774  0.006918  0.002536  0.002219     2.728
   1.71473  0.66755 -0.00768 -0.97684  0.006988  0.002567  0.002210     2.723
   1.73178  0.68459 -0.00712 -0.97604  0.007052  0.002597  0.002206     2.716
   1.74883  0.70164 -0.00659 -0.97534  0.007110  0.002625  0.002208     2.708
   1.76588  0.71867 -0.00608 -0.97476  0.007158  0.002652  0.002217     2.699
   1.78292  0.73570 -0.00560 -0.97428  0.007201  0.002679  0.002231     2.688
   1.79995  0.75273 -0.00514 -0.97393  0.007235  0.002703  0.002252     2.677
   1.81698  0.76976 -0.00471 -0.97370  0.007263  0.002726  0.002278     2.664
   1.83401  0.78678 -0.00431 -0.97362  0.007281  0.002748  0.002311     2.649
   1.85104  0.80381 -0.00393 -0.97368  0.007292  0.002768  0.002350     2.634
   1.86807  0.82084 -0.00357 -0.97391  0.007294  0.002787  0.002397     2.617
   1.88510  0.83786 -0.00324 -0.97429  0.007287  0.002803  0.002449     2.600
   1.90213  0.85489 -0.00294 -0.97490  0.007268  0.002817  0.002514     2.580
   1.91914  0.87190 -0.00266 -0.97570  0.007241  0.002830  0.002584     2.559
   1.93613  0.88889 -0.00241 -0.97675  0.007202  0.002839  0.002667     2.536
   1.95305  0.90581 -0.00218 -0.97809  0.007148  0.002846  0.002763     2.512
   1.96983  0.92258 -0.00197 -0.97977  0.007077  0.002848  0.002877     2.485
   1.98627  0.93902 -0.00179 -0.98185  0.006988  0.002847  0.003013     2.455
   2.00209  0.95483 -0.00163 -0.98441  0.006875  0.002839  0.003177     2.422
   2.01678  0.96953 -0.00150 -0.98747  0.006740  0.002825  0.003371     2.386
   2.02984  0.98258 -0.00139 -0.99111  0.006574  0.002803  0.003609     2.345
   2.04093  0.99368 -0.00131 -0.99516  0.006393  0.002775  0.003876     2.304
   2.04725  1.00000 -0.00126 -1.00041  0.006121  0.002726  0.004295     2.245
   2.04725  1.00010 -0.00001  1.00041  0.059337  0.013964  0.000000     4.249
   2.05356  1.00636 -0.00082  0.99635  0.058451  0.014319  0.000000     4.082
   2.06096  1.01371 -0.00165  0.99012  0.057229  0.014865  0.000000     3.850
   2.06964  1.02234 -0.00256  0.98250  0.055732  0.015536  0.000000     3.587
   2.07981  1.03246 -0.00357  0.97458  0.053887  0.016237  0.000000     3.319
   2.09174  1.04434 -0.00469  0.96671  0.051666  0.016934  0.000000     3.051
   2.10574  1.05828 -0.00593  0.95891  0.049069  0.017622  0.000000     2.784
   2.12215  1.07463 -0.00730  0.95170  0.046101  0.018253  0.000000     2.526
   2.14139  1.09382 -0.00881  0.94574  0.042807  0.018764  0.000000     2.281
   2.16396  1.11632 -0.01048  0.94175  0.039285  0.019099  0.000000     2.057
   2.19042  1.14272 -0.01230  0.94029  0.035684  0.019216  0.000000     1.857
   2.22145  1.17369 -0.01429  0.94164  0.032190  0.019112  0.000000     1.684
   2.25784  1.21002 -0.01645  0.94554  0.028982  0.018829  0.000000     1.539
   2.30052  1.25263 -0.01879  0.95127  0.026189  0.018437  0.000000     1.420
   2.35057  1.30262 -0.02129  0.95789  0.023861  0.018011  0.000000     1.325
   2.40926  1.36125 -0.02395  0.96457  0.021983  0.017604  0.000000     1.249
   2.47809  1.43002 -0.02675  0.97075  0.020497  0.017246  0.000000     1.189
   2.55880  1.51067 -0.02969  0.97621  0.019339  0.016943  0.000000     1.141
   2.65345  1.60528 -0.03272  0.98088  0.018447  0.016692  0.000000     1.105
   2.76445  1.71623 -0.03582  0.98479  0.017769  0.016488  0.000000     1.078
   2.89461  1.84636 -0.03894  0.98799  0.017258  0.016325  0.000000     1.057
   3.04725  1.99897 -0.04202  0.99158  0.016825  0.016145  0.000000     1.042
