#    s        x        y     Ue/Vinf    Dstar     Theta      Cf       H
   0.00000  1.00000  0.00126  1.16124  0.161120  0.003317 -0.000297    48.572
   0.00630  0.99392  0.00292  1.16127  0.159817  0.003314 -0.000975    48.218
   0.01727  0.98333  0.00577  1.16133  0.157472  0.003311 -0.000977    47.562
   0.03004  0.97098  0.00904  1.16138  0.154646  0.003308 -0.000978    46.751
   0.04430  0.95718  0.01262  1.16144  0.151421  0.003305 -0.000979    45.809
   0.05958  0.94237  0.01638  1.16149  0.147908  0.003304 -0.000980    44.769
   0.07546  0.92696  0.02021  1.16154  0.144209  0.003303 -0.000980    43.661
   0.09164  0.91123  0.02403  1.16159  0.140399  0.003303 -0.000981    42.510
   0.10799  0.89533  0.02780  1.16163  0.136523  0.003303 -0.000981    41.332
   0.12441  0.87933  0.03149  1.16167  0.132606  0.003304 -0.000981    40.134
   0.14087  0.86327  0.03511  1.16171  0.128667  0.003306 -0.000982    38.925
   0.15734  0.84718  0.03864  1.16175  0.124713  0.003307 -0.000982    37.707
   0.17383  0.83106  0.04208  1.16178  0.120753  0.003310 -0.000982    36.486
   0.19032  0.81492  0.04544  1.16181  0.116790  0.003312 -0.000981    35.262
   0.20680  0.79875  0.04870  1.16185  0.112833  0.003315 -0.000981    34.038
   0.22329  0.78258  0.05188  1.16188  0.108880  0.003318 -0.000981    32.817
   0.23978  0.76638  0.05496  1.16191  0.104937  0.003321 -0.000981    31.599
   0.25626  0.75017  0.05796  1.16194  0.101008  0.003324 -0.000981    30.387
   0.27274  0.73395  0.06086  1.16197  0.097097  0.003327 -0.000981    29.182
   0.28921  0.71772  0.06368  1.16200  0.093205  0.003330 -0.000981    27.986
   0.30568  0.70148  0.06640  1.16203  0.089335  0.003333 -0.000982    26.799
   0.32214  0.68523  0.06902  1.16207  0.085490  0.003336 -0.000982    25.624
   0.33859  0.66898  0.07155  1.16212  0.081675  0.003339 -0.000983    24.461
   0.35503  0.65272  0.07398  1.16217  0.077891  0.003341 -0.000984    23.312
   0.37146  0.63645  0.07632  1.16222  0.074141  0.003343 -0.000985    22.178
   0.38788  0.62019  0.07855  1.16229  0.070428  0.003344 -0.000986    21.059
   0.40429  0.60392  0.08069  1.16238  0.066757  0.003345 -0.000988    19.958
   0.42068  0.58766  0.08272  1.16248  0.063128  0.003345 -0.000991    18.875
   0.43705  0.57140  0.08465  1.16261  0.059549  0.003343 -0.000994    17.812
   0.45341  0.55514  0.08647  1.16276  0.056019  0.003341 -0.000998    16.769
   0.46975  0.53889  0.08818  1.16295  0.052545  0.003337 -0.001003    15.747
   0.48606  0.52265  0.08978  1.16319  0.049128  0.003331 -0.001009    14.748
   0.50236  0.50642  0.09127  1.16348  0.045774  0.003323 -0.001016    13.773
   0.51863  0.49021  0.09264  1.16385  0.042489  0.003313 -0.001025    12.823
   0.53487  0.47402  0.09390  1.16432  0.039276  0.003301 -0.001037    11.900
   0.55108  0.45785  0.09503  1.16490  0.036138  0.003285 -0.001051    11.003
   0.56725  0.44172  0.09603  1.16565  0.033087  0.003265 -0.001069    10.135
   0.58335  0.42564  0.09690  1.16659  0.030126  0.003240 -0.001091     9.297
   0.59935  0.40965  0.09765  1.16778  0.027270  0.003211 -0.001120     8.493
   0.61519  0.39382  0.09824  1.16929  0.024526  0.003176 -0.001157     7.723
   0.63085  0.37817  0.09865  1.17123  0.021967  0.003133 -0.001207     7.010
   0.64639  0.36263  0.09885  1.17373  0.019595  0.003083 -0.001272     6.356
   0.66187  0.34716  0.09884  1.17693  0.017412  0.003023 -0.001350     5.759
   0.67728  0.33174  0.09863  1.18099  0.015421  0.002954 -0.001394     5.221
   0.69264  0.31639  0.09821  1.18610  0.013624  0.002874 -0.001330     4.741
   0.70795  0.30109  0.09757  1.19234  0.012024  0.002783 -0.001018     4.320
   0.72321  0.28586  0.09672  1.19964  0.010618  0.002685 -0.000355     3.955
   0.73841  0.27069  0.09564  1.20811  0.009401  0.002577  0.000687     3.649
   0.75355  0.25561  0.09433  1.21773  0.008359  0.002459  0.002064     3.399
   0.76863  0.24061  0.09280  1.22816  0.007480  0.002337  0.003687     3.201
   0.78363  0.22571  0.09103  1.23885  0.006742  0.002213  0.005474     3.046
   0.79855  0.21092  0.08902  1.24928  0.006122  0.002093  0.007346     2.925
   0.81339  0.19626  0.08678  1.25903  0.005596  0.001977  0.009262     2.831
   0.82811  0.18175  0.08429  1.26774  0.005146  0.001866  0.011173     2.758
   0.84271  0.16741  0.08155  1.27524  0.004753  0.001761  0.013092     2.700
   0.85717  0.15327  0.07856  1.28136  0.004408  0.001660  0.014985     2.654
   0.87144  0.13937  0.07533  1.28606  0.004096  0.001564  0.016886     2.618
   0.88548  0.12576  0.07185  1.28931  0.003809  0.001471  0.018830     2.589
   0.89921  0.11254  0.06815  1.29104  0.003541  0.001381  0.020829     2.565
   0.91255  0.09978  0.06426  1.29122  0.003290  0.001292  0.022919     2.546
   0.92536  0.08762  0.06020  1.28980  0.003051  0.001206  0.025121     2.530
   0.93750  0.07622  0.05606  1.28681  0.002823  0.001122  0.027505     2.515
   0.94879  0.06572  0.05190  1.28218  0.002607  0.001041  0.030071     2.503
   0.95911  0.05625  0.04782  1.27597  0.002402  0.000964  0.032897     2.491
   0.96837  0.04786  0.04389  1.26810  0.002211  0.000892  0.035927     2.480
   0.97657  0.04055  0.04017  1.25863  0.002035  0.000824  0.039179     2.470
   0.98379  0.03423  0.03668  1.24758  0.001872  0.000761  0.042697     2.459
   0.99012  0.02879  0.03343  1.23481  0.001721  0.000703  0.046519     2.448
   0.99570  0.02411  0.03040  1.22003  0.001582  0.000649  0.050631     2.436
   1.00063  0.02008  0.02756  1.20294  0.001453  0.000600  0.055046     2.423
   1.00502  0.01660  0.02489  1.18308  0.001334  0.000554  0.059765     2.410
   1.00896  0.01357  0.02236  1.15988  0.001224  0.000511  0.064718     2.396
   1.01253  0.01095  0.01995  1.13267  0.001120  0.000470  0.070154     2.381
   1.01577  0.00867  0.01764  1.10016  0.001024  0.000433  0.075685     2.365
   1.01874  0.00671  0.01541  1.06129  0.000936  0.000398  0.081147     2.349
   1.02149  0.00502  0.01324  1.01473  0.000854  0.000366  0.086234     2.334
   1.02404  0.00360  0.01113  0.95859  0.000778  0.000336  0.091114     2.314
   1.02642  0.00242  0.00906  0.89057  0.000713  0.000310  0.093653     2.300
   1.02866  0.00148  0.00703  0.80946  0.000653  0.000286  0.094537     2.281
   1.03077  0.00077  0.00504  0.71295  0.000604  0.000266  0.091289     2.267
   1.03277  0.00029  0.00309  0.60104  0.000563  0.000250  0.083619     2.252
   1.03468  0.00004  0.00120  0.47445  0.000536  0.000240  0.070343     2.237
   1.03651  0.00001 -0.00064  0.34034  0.000518  0.000231  0.051786     2.245
   1.03838  0.00020 -0.00249  0.19031  0.000494  0.000222  0.030896     2.227
   1.04030  0.00065 -0.00436  0.02849  0.000514  0.000230  0.004434     2.230
   1.04230  0.00137 -0.00623 -0.13112  0.000514  0.000230  0.020411     2.230
   1.04439  0.00239 -0.00805 -0.28463  0.000544  0.000243  0.041363     2.242
   1.04657  0.00369 -0.00980 -0.42085  0.000587  0.000261  0.056267     2.250
   1.04888  0.00527 -0.01148 -0.53521  0.000649  0.000286  0.063496     2.271
   1.05132  0.00712 -0.01307 -0.62963  0.000716  0.000314  0.067097     2.281
   1.05393  0.00925 -0.01459 -0.70669  0.000797  0.000346  0.066344     2.302
   1.05675  0.01167 -0.01603 -0.76859  0.000887  0.000383  0.063715     2.320
   1.05979  0.01438 -0.01741 -0.81852  0.000988  0.000423  0.059898     2.338
   1.06312  0.01744 -0.01873 -0.85897  0.001098  0.000466  0.055594     2.356
   1.06679  0.02087 -0.02000 -0.89176  0.001219  0.000513  0.051040     2.375
   1.07086  0.02476 -0.02123 -0.91889  0.001348  0.000564  0.046858     2.390
   1.07542  0.02916 -0.02242 -0.94078  0.001496  0.000620  0.042341     2.411
   1.08058  0.03419 -0.02357 -0.95872  0.001654  0.000681  0.038388     2.427
   1.08647  0.03998 -0.02467 -0.97332  0.001830  0.000749  0.034601     2.444
   1.09325  0.04667 -0.02572 -0.98510  0.002024  0.000822  0.031097     2.461
   1.10108  0.05445 -0.02670 -0.99418  0.002244  0.000905  0.027756     2.480
   1.11013  0.06345 -0.02758 -1.00086  0.002487  0.000995  0.024717     2.499
   1.12048  0.07377 -0.02833 -1.00553  0.002751  0.001093  0.022047     2.516
   1.13215  0.08543 -0.02891 -1.00821  0.003040  0.001199  0.019590     2.535
   1.14504  0.09832 -0.02929 -1.00933  0.003343  0.001310  0.017503     2.552
   1.15896  0.11223 -0.02947 -1.00921  0.003657  0.001424  0.015715     2.568
   1.17368  0.12696 -0.02945 -1.00815  0.003977  0.001539  0.014186     2.584
   1.18901  0.14228 -0.02924 -1.00645  0.004296  0.001654  0.012907     2.597
   1.20480  0.15806 -0.02887 -1.00440  0.004608  0.001766  0.011850     2.609
   1.22092  0.17418 -0.02837 -1.00207  0.004919  0.001877  0.010933     2.620
   1.23731  0.19056 -0.02776 -0.99971  0.005216  0.001984  0.010190     2.628
   1.25391  0.20714 -0.02707 -0.99736  0.005504  0.002089  0.009558     2.635
   1.27067  0.22389 -0.02630 -0.99507  0.005782  0.002190  0.009020     2.640
   1.28758  0.24078 -0.02549 -0.99292  0.006047  0.002288  0.008579     2.643
   1.30460  0.25777 -0.02465 -0.99099  0.006294  0.002382  0.008226     2.643
   1.32169  0.27484 -0.02379 -0.98924  0.006531  0.002472  0.007922     2.642
   1.33881  0.29194 -0.02292 -0.98781  0.006743  0.002557  0.007709     2.637
   1.35590  0.30901 -0.02207 -0.98665  0.006940  0.002638  0.007537     2.631
   1.37294  0.32603 -0.02124 -0.98583  0.007113  0.002714  0.007429     2.621
   1.38994  0.34301 -0.02043 -0.98539  0.007263  0.002784  0.007381     2.608
   1.40689  0.35994 -0.01967 -0.98539  0.007386  0.002849  0.007391     2.592
   1.42382  0.37686 -0.01894 -0.98583  0.007484  0.002908  0.007452     2.574
   1.44075  0.39378 -0.01827 -0.98688  0.007546  0.002959  0.007597     2.550
   1.45775  0.41076 -0.01762 -0.98858  0.007576  0.003003  0.007809     2.523
   1.47481  0.42781 -0.01697 -0.99024  0.007641  0.003048  0.007896     2.507
   1.49192  0.44491 -0.01629 -0.99184  0.007726  0.003095  0.007906     2.496
   1.50907  0.46204 -0.01560 -0.99337  0.007824  0.003142  0.007869     2.490
   1.52625  0.47921 -0.01490 -0.99484  0.007931  0.003189  0.007803     2.487
   1.54344  0.49639 -0.01420 -0.99628  0.008039  0.003236  0.007731     2.484
   1.56064  0.51357 -0.01350 -0.99764  0.008151  0.003282  0.007643     2.483
   1.57783  0.53074 -0.01280 -0.99901  0.008258  0.003327  0.007568     2.482
   1.59499  0.54790 -0.01211 -1.00039  0.008360  0.003371  0.007500     2.480
   1.61214  0.56503 -0.01143 -1.00181  0.008457  0.003414  0.007444     2.477
   1.62928  0.58215 -0.01076 -1.00325  0.008548  0.003455  0.007399     2.474
   1.64639  0.59926 -0.01011 -1.00479  0.008630  0.003494  0.007373     2.470
   1.66350  0.61635 -0.00947 -1.00640  0.008704  0.003531  0.007362     2.465
   1.68058  0.63342 -0.00885 -1.00814  0.008766  0.003566  0.007371     2.459
   1.69766  0.65049 -0.00825 -1.01001  0.008819  0.003598  0.007396     2.451
   1.71473  0.66755 -0.00768 -1.01203  0.008862  0.003628  0.007439     2.443
   1.73178  0.68459 -0.00712 -1.01422  0.008894  0.003655  0.007502     2.433
   1.74883  0.70164 -0.00659 -1.01659  0.008915  0.003679  0.007582     2.423
   1.76588  0.71867 -0.00608 -1.01919  0.008923  0.003701  0.007684     2.411
   1.78292  0.73570 -0.00560 -1.02201  0.008921  0.003719  0.007805     2.399
   1.79995  0.75273 -0.00514 -1.02510  0.008904  0.003733  0.007951     2.385
   1.81698  0.76976 -0.00471 -1.02846  0.008878  0.003745  0.008116     2.371
   1.83401  0.78678 -0.00431 -1.03215  0.008836  0.003752  0.008309     2.355
   1.85104  0.80381 -0.00393 -1.03620  0.008781  0.003755  0.008529     2.338
   1.86807  0.82084 -0.00357 -1.04066  0.008711  0.003754  0.008785     2.321
   1.88510  0.83786 -0.00324 -1.04557  0.008625  0.003747  0.009073     2.302
   1.90213  0.85489 -0.00294 -1.05106  0.008520  0.003735  0.009414     2.281
   1.91914  0.87190 -0.00266 -1.05713  0.008398  0.003717  0.009797     2.259
   1.93613  0.88889 -0.00241 -1.06394  0.008254  0.003692  0.010248     2.236
   1.95305  0.90581 -0.00218 -1.07164  0.008084  0.003658  0.010786     2.210
   1.96983  0.92258 -0.00197 -1.08040  0.007886  0.003614  0.011428     2.182
   1.98627  0.93902 -0.00179 -1.09039  0.007655  0.003559  0.012204     2.151
   2.00209  0.95483 -0.00163 -1.10183  0.007387  0.003490  0.013157     2.117
   2.01678  0.96953 -0.00150 -1.11471  0.007085  0.003408  0.014318     2.079
   2.02984  0.98258 -0.00139 -1.12919  0.006742  0.003310  0.015771     2.037
   2.04093  0.99368 -0.00131 -1.14484  0.006379  0.003202  0.017492     1.993
   2.04725  1.00000 -0.00126 -1.16124  0.005934  0.003069  0.019951     1.933
   2.04725  1.00010 -0.00001  1.16124  0.169529  0.006387  0.000000    26.545
   2.05356  1.00636 -0.00081  1.15841  0.169397  0.006833  0.000000    24.790
   2.06096  1.01372 -0.00159  1.15482  0.168989  0.007403  0.000000    22.828
   2.06964  1.02235 -0.00242  1.15057  0.168386  0.008082  0.000000    20.835
   2.07981  1.03249 -0.00331  1.14554  0.167537  0.008894  0.000000    18.837
   2.09174  1.04438 -0.00426  1.13953  0.166382  0.009872  0.000000    16.853
   2.10574  1.05834 -0.00527  1.13242  0.164827  0.011042  0.000000    14.927
   2.12215  1.07471 -0.00633  1.12400  0.162760  0.012443  0.000000    13.081
   2.14139  1.09393 -0.00743  1.11401  0.160040  0.014126  0.000000    11.330
   2.16396  1.11646 -0.00855  1.10212  0.156488  0.016155  0.000000     9.686
   2.19042  1.14290 -0.00966  1.08791  0.151888  0.018615  0.000000     8.160
   2.22145  1.17392 -0.01073  1.07098  0.145968  0.021592  0.000000     6.760
   2.25784  1.21030 -0.01171  1.05020  0.138476  0.025313  0.000000     5.471
   2.30052  1.25297 -0.01253  1.02375  0.129202  0.030167  0.000000     4.283
   2.35057  1.30301 -0.01311  0.99201  0.117932  0.036180  0.000000     3.260
   2.40926  1.36170 -0.01334  0.96623  0.104523  0.041163  0.000000     2.539
   2.47809  1.43053 -0.01309  0.94962  0.090180  0.044338  0.000000     2.034
   2.55880  1.51123 -0.01218  0.94385  0.076580  0.045394  0.000000     1.687
   2.65345  1.60587 -0.01042  0.94715  0.065187  0.044832  0.000000     1.454
   2.76445  1.71683 -0.00755  0.95548  0.056570  0.043526  0.000000     1.300
   2.89461  1.84692 -0.00327  0.96515  0.050440  0.042125  0.000000     1.197
   3.04725  1.99945  0.00277  0.98423  0.044558  0.039597  0.000000     1.125
