#    s        x        y     Ue/Vinf    Dstar     Theta      Cf       H
   0.00000  1.00000  0.00126  1.51599  0.754338  0.034260 -0.000125    22.018
   0.00630  0.99392  0.00292  1.51637  0.751170  0.034056 -0.000126    22.057
   0.01727  0.98333  0.00577  1.51704  0.745625  0.033699 -0.000128    22.126
   0.03004  0.97098  0.00904  1.51781  0.738910  0.033287 -0.000129    22.198
   0.04430  0.95718  0.01262  1.51868  0.731213  0.032829 -0.000131    22.273
   0.05958  0.94237  0.01638  1.51962  0.722779  0.032341 -0.000133    22.349
   0.07546  0.92696  0.02021  1.52060  0.713844  0.031834 -0.000135    22.424
   0.09164  0.91123  0.02403  1.52162  0.704574  0.031319 -0.000138    22.497
   0.10799  0.89533  0.02780  1.52265  0.695071  0.030799 -0.000140    22.568
   0.12441  0.87933  0.03149  1.52371  0.685389  0.030279 -0.000142    22.636
   0.14087  0.86327  0.03511  1.52479  0.675564  0.029757 -0.000145    22.702
   0.15734  0.84718  0.03864  1.52588  0.665606  0.029236 -0.000148    22.767
   0.17383  0.83106  0.04208  1.52698  0.655536  0.028715 -0.000150    22.829
   0.19032  0.81492  0.04544  1.52811  0.645353  0.028195 -0.000153    22.889
   0.20680  0.79875  0.04870  1.52925  0.635062  0.027674 -0.000156    22.948
   0.22329  0.78258  0.05188  1.53042  0.624674  0.027154 -0.000159    23.004
   0.23978  0.76638  0.05496  1.53160  0.614181  0.026635 -0.000163    23.059
   0.25626  0.75017  0.05796  1.53280  0.603597  0.026116 -0.000166    23.112
   0.27274  0.73395  0.06086  1.53403  0.592916  0.025597 -0.000169    23.164
   0.28921  0.71772  0.06368  1.53528  0.582142  0.025078 -0.000173    23.213
   0.30568  0.70148  0.06640  1.53655  0.571277  0.024559 -0.000177    23.261
   0.32214  0.68523  0.06902  1.53785  0.560319  0.024041 -0.000181    23.307
   0.33859  0.66898  0.07155  1.53918  0.549280  0.023522 -0.000185    23.351
   0.35503  0.65272  0.07398  1.54053  0.538145  0.023004 -0.000189    23.393
   0.37146  0.63645  0.07632  1.54191  0.526926  0.022486 -0.000194    23.434
   0.38788  0.62019  0.07855  1.54333  0.515623  0.021968 -0.000199    23.472
   0.40429  0.60392  0.08069  1.54478  0.504232  0.021449 -0.000204    23.508
   0.42068  0.58766  0.08272  1.54626  0.492754  0.020931 -0.000209    23.542
   0.43705  0.57140  0.08465  1.54778  0.481195  0.020412 -0.000214    23.574
   0.45341  0.55514  0.08647  1.54934  0.469550  0.019893 -0.000220    23.603
   0.46975  0.53889  0.08818  1.55094  0.457824  0.019374 -0.000226    23.631
   0.48606  0.52265  0.08978  1.55259  0.446014  0.018855 -0.000233    23.655
   0.50236  0.50642  0.09127  1.55429  0.434119  0.018334 -0.000240    23.678
   0.51863  0.49021  0.09264  1.55603  0.422140  0.017814 -0.000247    23.697
   0.53487  0.47402  0.09390  1.55784  0.410088  0.017292 -0.000255    23.715
   0.55108  0.45785  0.09503  1.55970  0.397939  0.016770 -0.000263    23.729
   0.56725  0.44172  0.09603  1.56162  0.385724  0.016247 -0.000272    23.741
   0.58335  0.42564  0.09690  1.56361  0.373440  0.015724 -0.000281    23.749
   0.59935  0.40965  0.09765  1.56567  0.361112  0.015202 -0.000291    23.755
   0.61519  0.39382  0.09824  1.56779  0.348766  0.014682 -0.000302    23.754
   0.63085  0.37817  0.09865  1.56997  0.336486  0.014165 -0.000313    23.754
   0.64639  0.36263  0.09885  1.57225  0.324233  0.013647 -0.000326    23.758
   0.66187  0.34716  0.09884  1.57463  0.311989  0.013127 -0.000339    23.767
   0.67728  0.33174  0.09863  1.57714  0.299762  0.012601 -0.000354    23.789
   0.69264  0.31639  0.09821  1.57981  0.287524  0.012062 -0.000370    23.838
   0.70795  0.30109  0.09757  1.58265  0.275296  0.011517 -0.000388    23.904
   0.72321  0.28586  0.09672  1.58565  0.263076  0.010965 -0.000409    23.991
   0.73841  0.27069  0.09564  1.58885  0.250869  0.010406 -0.000431    24.108
   0.75355  0.25561  0.09433  1.59227  0.238688  0.009838 -0.000457    24.262
   0.76863  0.24061  0.09280  1.59594  0.226512  0.009259 -0.000487    24.464
   0.78363  0.22571  0.09103  1.59991  0.214371  0.008668 -0.000521    24.732
   0.79855  0.21092  0.08902  1.60424  0.202266  0.008062 -0.000561    25.090
   0.81339  0.19626  0.08678  1.60899  0.190186  0.007437 -0.000570    25.571
   0.82811  0.18175  0.08429  1.61426  0.178141  0.006791 -0.000573    26.232
   0.84271  0.16741  0.08155  1.62017  0.166156  0.006116 -0.000577    27.165
   0.85717  0.15327  0.07856  1.62685  0.154233  0.005411 -0.000582    28.502
   0.87144  0.13937  0.07533  1.63465  0.142364  0.004655 -0.000588    30.583
   0.88548  0.12576  0.07185  1.64409  0.130594  0.003820 -0.000595    34.187
   0.89921  0.11254  0.06815  1.65635  0.118883  0.002838 -0.000604    41.887
   0.91255  0.09978  0.06426  1.67843  0.106932  0.001104 -0.000620    96.831
   0.92536  0.08762  0.06020  1.68393  0.096377  0.000774 -0.006012   124.554
   0.93750  0.07622  0.05606  1.68482  0.086461  0.000738 -0.006309   117.171
   0.94879  0.06572  0.05190  1.68575  0.077054  0.000705 -0.006609   109.288
   0.95911  0.05625  0.04782  1.68668  0.068314  0.000676 -0.006899   101.038
   0.96837  0.04786  0.04389  1.68760  0.060337  0.000652 -0.007163    92.551
   0.97657  0.04055  0.04017  1.68846  0.053161  0.000633 -0.007387    84.004
   0.98379  0.03423  0.03668  1.68924  0.046764  0.000619 -0.007565    75.581
   0.99012  0.02879  0.03343  1.68992  0.041080  0.000609 -0.007695    67.440
   0.99570  0.02411  0.03040  1.69048  0.036024  0.000603 -0.007780    59.699
   1.00063  0.02008  0.02756  1.69093  0.031521  0.000601 -0.007828    52.471
   1.00502  0.01660  0.02489  1.69128  0.027489  0.000600 -0.007848    45.784
   1.00896  0.01357  0.02236  1.69154  0.023860  0.000602 -0.007848    39.649
   1.01253  0.01095  0.01995  1.69172  0.020587  0.000604 -0.007840    34.075
   1.01577  0.00867  0.01764  1.69185  0.017628  0.000607 -0.007832    29.041
   1.01874  0.00671  0.01541  1.69199  0.014949  0.000610 -0.007835    24.521
   1.02149  0.00502  0.01324  1.69220  0.012526  0.000612 -0.007861    20.483
   1.02404  0.00360  0.01113  1.69261  0.010330  0.000612 -0.007927    16.880
   1.02642  0.00242  0.00906  1.69350  0.008388  0.000610 -0.008064    13.757
   1.02866  0.00148  0.00703  1.69528  0.006668  0.000604 -0.008316    11.044
   1.03077  0.00077  0.00504  1.69869  0.005171  0.000593 -0.008780     8.726
   1.03277  0.00029  0.00309  1.70516  0.003932  0.000574 -0.009662     6.849
   1.03468  0.00004  0.00120  1.71676  0.002904  0.000547 -0.010978     5.311
   1.03651  0.00001 -0.00064  1.73640  0.002115  0.000509 -0.006070     4.154
   1.03838  0.00020 -0.00249  1.76711  0.001506  0.000459  0.022183     3.282
   1.04030  0.00065 -0.00436  1.80652  0.001093  0.000398  0.075931     2.748
   1.04230  0.00137 -0.00623  1.82797  0.000846  0.000345  0.139471     2.451
   1.04439  0.00239 -0.00805  1.80278  0.000722  0.000314  0.187110     2.301
   1.04657  0.00369 -0.00980  1.72716  0.000672  0.000301  0.205045     2.232
   1.04888  0.00527 -0.01148  1.61637  0.000657  0.000300  0.204433     2.187
   1.05132  0.00712 -0.01307  1.48386  0.000676  0.000311  0.184398     2.174
   1.05393  0.00925 -0.01459  1.34810  0.000707  0.000326  0.160766     2.170
   1.05675  0.01167 -0.01603  1.21260  0.000741  0.000344  0.139883     2.153
   1.05979  0.01438 -0.01741  1.07971  0.000805  0.000371  0.112958     2.171
   1.06312  0.01744 -0.01873  0.95759  0.000852  0.000395  0.095620     2.159
   1.06679  0.02087 -0.02000  0.83868  0.000927  0.000427  0.076065     2.172
   1.07086  0.02476 -0.02123  0.72864  0.000995  0.000458  0.061662     2.171
   1.07542  0.02916 -0.02242  0.62346  0.001082  0.000496  0.048033     2.183
   1.08058  0.03419 -0.02357  0.52399  0.001164  0.000534  0.037596     2.180
   1.08647  0.03998 -0.02467  0.42845  0.001274  0.000580  0.027709     2.197
   1.09325  0.04667 -0.02572  0.33743  0.001375  0.000628  0.020360     2.189
   1.10108  0.05445 -0.02670  0.25066  0.001522  0.000687  0.013329     2.216
   1.11013  0.06345 -0.02758  0.16915  0.001614  0.000730  0.008516     2.212
   1.12048  0.07377 -0.02833  0.08958  0.001792  0.000808  0.004040     2.218
   1.13215  0.08543 -0.02891  0.01905  0.002017  0.000905  0.000755     2.230
   1.14504  0.09832 -0.02929 -0.04775  0.002017  0.000905  0.001894     2.230
   1.15896  0.11223 -0.02947 -0.10743  0.002310  0.001022  0.003619     2.260
   1.17368  0.12696 -0.02945 -0.16032  0.002422  0.001086  0.005292     2.230
   1.18901  0.14228 -0.02924 -0.20790  0.002618  0.001156  0.006149     2.265
   1.20480  0.15806 -0.02887 -0.24953  0.002769  0.001228  0.007042     2.255
   1.22092  0.17418 -0.02837 -0.28766  0.002917  0.001290  0.007660     2.262
   1.23731  0.19056 -0.02776 -0.32185  0.003069  0.001353  0.008100     2.268
   1.25391  0.20714 -0.02707 -0.35278  0.003215  0.001415  0.008449     2.271
   1.27067  0.22389 -0.02630 -0.38106  0.003353  0.001475  0.008725     2.274
   1.28758  0.24078 -0.02549 -0.40695  0.003492  0.001533  0.008916     2.278
   1.30460  0.25777 -0.02465 -0.43124  0.003607  0.001584  0.009162     2.277
   1.32169  0.27484 -0.02379 -0.45401  0.003722  0.001634  0.009331     2.278
   1.33881  0.29194 -0.02292 -0.47542  0.003829  0.001680  0.009490     2.279
   1.35590  0.30901 -0.02207 -0.49557  0.003932  0.001724  0.009624     2.280
   1.37294  0.32603 -0.02124 -0.51472  0.004024  0.001765  0.009770     2.280
   1.38994  0.34301 -0.02043 -0.53330  0.004098  0.001800  0.009975     2.276
   1.40689  0.35994 -0.01967 -0.55125  0.004171  0.001833  0.010141     2.275
   1.42382  0.37686 -0.01894 -0.56902  0.004222  0.001860  0.010391     2.270
   1.44075  0.39378 -0.01827 -0.58670  0.004264  0.001882  0.010655     2.265
   1.45775  0.41076 -0.01762 -0.60492  0.004276  0.001896  0.011053     2.255
   1.47481  0.42781 -0.01697 -0.62262  0.004323  0.001915  0.011229     2.258
   1.49192  0.44491 -0.01629 -0.63967  0.004378  0.001935  0.011347     2.262
   1.50907  0.46204 -0.01560 -0.65602  0.004439  0.001958  0.011426     2.267
   1.52625  0.47921 -0.01490 -0.67191  0.004494  0.001981  0.011539     2.269
   1.54344  0.49639 -0.01420 -0.68759  0.004538  0.002001  0.011705     2.268
   1.56064  0.51357 -0.01350 -0.70303  0.004580  0.002020  0.011869     2.267
   1.57783  0.53074 -0.01280 -0.71794  0.004632  0.002041  0.011957     2.269
   1.59499  0.54790 -0.01211 -0.73322  0.004648  0.002055  0.012247     2.262
   1.61214  0.56503 -0.01143 -0.74804  0.004688  0.002071  0.012378     2.263
   1.62928  0.58215 -0.01076 -0.76297  0.004709  0.002084  0.012609     2.260
   1.64639  0.59926 -0.01011 -0.77789  0.004728  0.002095  0.012836     2.257
   1.66350  0.61635 -0.00947 -0.79296  0.004738  0.002103  0.013106     2.253
   1.68058  0.63342 -0.00885 -0.80816  0.004745  0.002110  0.013389     2.249
   1.69766  0.65049 -0.00825 -0.82348  0.004749  0.002115  0.013673     2.245
   1.71473  0.66755 -0.00768 -0.83915  0.004742  0.002117  0.014022     2.240
   1.73178  0.68459 -0.00712 -0.85509  0.004732  0.002117  0.014379     2.235
   1.74883  0.70164 -0.00659 -0.87139  0.004715  0.002114  0.014772     2.230
   1.76588  0.71867 -0.00608 -0.88818  0.004691  0.002109  0.015215     2.224
   1.78292  0.73570 -0.00560 -0.90543  0.004663  0.002102  0.015684     2.219
   1.79995  0.75273 -0.00514 -0.92334  0.004625  0.002091  0.016220     2.212
   1.81698  0.76976 -0.00471 -0.94177  0.004588  0.002079  0.016759     2.206
   1.83401  0.78678 -0.00431 -0.96130  0.004530  0.002062  0.017467     2.197
   1.85104  0.80381 -0.00393 -0.98153  0.004476  0.002043  0.018152     2.191
   1.86807  0.82084 -0.00357 -1.00295  0.004408  0.002020  0.018976     2.182
   1.88510  0.83786 -0.00324 -1.02565  0.004332  0.001993  0.019899     2.173
   1.90213  0.85489 -0.00294 -1.04989  0.004245  0.001962  0.020963     2.164
   1.91914  0.87190 -0.00266 -1.07599  0.004146  0.001926  0.022203     2.153
   1.93613  0.88889 -0.00241 -1.10427  0.004036  0.001885  0.023647     2.141
   1.95305  0.90581 -0.00218 -1.13534  0.003907  0.001837  0.025409     2.127
   1.96983  0.92258 -0.00197 -1.16986  0.003759  0.001781  0.027581     2.111
   1.98627  0.93902 -0.00179 -1.20843  0.003592  0.001717  0.030279     2.092
   2.00209  0.95483 -0.00163 -1.25211  0.003395  0.001641  0.033832     2.069
   2.01678  0.96953 -0.00150 -1.30159  0.003169  0.001553  0.038557     2.040
   2.02984  0.98258 -0.00139 -1.35918  0.002893  0.001447  0.045539     2.000
   2.04093  0.99368 -0.00131 -1.42648  0.002585  0.001325  0.055527     1.951
   2.04725  1.00000 -0.00126 -1.51599  0.002060  0.001134  0.081547     1.816
   2.04725  1.00010 -0.00001  1.51599  0.758874  0.035394  0.000000    21.440
   2.05356  1.00637 -0.00071  1.51524  0.759973  0.035807  0.000000    21.224
   2.06096  1.01376 -0.00114  1.51429  0.760849  0.036332  0.000000    20.941
   2.06964  1.02243 -0.00135  1.51316  0.761696  0.036953  0.000000    20.613
   2.07981  1.03260 -0.00131  1.51183  0.762452  0.037686  0.000000    20.232
   2.09174  1.04453 -0.00093  1.51027  0.763060  0.038554  0.000000    19.792
   2.10574  1.05850 -0.00012  1.50843  0.763433  0.039582  0.000000    19.287
   2.12215  1.07485  0.00126  1.50625  0.763454  0.040801  0.000000    18.712
   2.14139  1.09398  0.00336  1.50368  0.762961  0.042246  0.000000    18.060
   2.16396  1.11634  0.00640  1.50064  0.761734  0.043964  0.000000    17.326
   2.19042  1.14246  0.01065  1.49704  0.759476  0.046007  0.000000    16.508
   2.22145  1.17295  0.01643  1.49277  0.755783  0.048441  0.000000    15.602
   2.25784  1.20852  0.02413  1.48770  0.750107  0.051347  0.000000    14.608
   2.30052  1.24998  0.03423  1.48164  0.741697  0.054825  0.000000    13.528
   2.35057  1.29828  0.04735  1.47439  0.729509  0.059000  0.000000    12.365
   2.40926  1.35451  0.06418  1.46563  0.712068  0.064031  0.000000    11.121
   2.47809  1.41992  0.08558  1.45497  0.687227  0.070131  0.000000     9.799
   2.55880  1.49598  0.11260  1.44177  0.651721  0.077597  0.000000     8.399
   2.65345  1.58436  0.14647  1.42498  0.600246  0.086886  0.000000     6.908
   2.76445  1.68703  0.18866  1.40238  0.522891  0.098895  0.000000     5.287
   2.89461  1.80624  0.24092  1.36495  0.402393  0.117453  0.000000     3.426
   3.04725  1.94463  0.30532  1.71599  0.045029  0.044749  0.000000     1.006
