#    s        x        y     Ue/Vinf    Dstar     Theta      Cf       H
   0.00000  1.00000  0.00126  1.18755  0.203922  0.002972 -0.000310    68.610
   0.00630  0.99392  0.00292  1.18759  0.202421  0.002968 -0.001110    68.203
   0.01727  0.98333  0.00577  1.18765  0.199744  0.002961 -0.001112    67.453
   0.03004  0.97098  0.00904  1.18772  0.196515  0.002955 -0.001115    66.505
   0.04430  0.95718  0.01262  1.18779  0.192830  0.002949 -0.001118    65.391
   0.05958  0.94237  0.01638  1.18786  0.188813  0.002943 -0.001120    64.147
   0.07546  0.92696  0.02021  1.18792  0.184580  0.002939 -0.001122    62.807
   0.09164  0.91123  0.02403  1.18799  0.180215  0.002935 -0.001124    61.401
   0.10799  0.89533  0.02780  1.18805  0.175768  0.002932 -0.001125    59.947
   0.12441  0.87933  0.03149  1.18811  0.171267  0.002930 -0.001126    58.456
   0.14087  0.86327  0.03511  1.18816  0.166733  0.002928 -0.001127    56.938
   0.15734  0.84718  0.03864  1.18821  0.162173  0.002927 -0.001128    55.396
   0.17383  0.83106  0.04208  1.18826  0.157596  0.002927 -0.001129    53.836
   0.19032  0.81492  0.04544  1.18831  0.153007  0.002928 -0.001129    52.261
   0.20680  0.79875  0.04870  1.18835  0.148412  0.002929 -0.001129    50.674
   0.22329  0.78258  0.05188  1.18839  0.143811  0.002930 -0.001129    49.077
   0.23978  0.76638  0.05496  1.18843  0.139210  0.002932 -0.001128    47.473
   0.25626  0.75017  0.05796  1.18846  0.134613  0.002935 -0.001128    45.865
   0.27274  0.73395  0.06086  1.18849  0.130022  0.002938 -0.001128    44.255
   0.28921  0.71772  0.06368  1.18852  0.125439  0.002941 -0.001127    42.645
   0.30568  0.70148  0.06640  1.18854  0.120868  0.002945 -0.001126    41.038
   0.32214  0.68523  0.06902  1.18857  0.116311  0.002950 -0.001125    39.434
   0.33859  0.66898  0.07155  1.18859  0.111772  0.002954 -0.001124    37.837
   0.35503  0.65272  0.07398  1.18860  0.107252  0.002959 -0.001123    36.249
   0.37146  0.63645  0.07632  1.18862  0.102754  0.002964 -0.001123    34.671
   0.38788  0.62019  0.07855  1.18864  0.098280  0.002969 -0.001122    33.104
   0.40429  0.60392  0.08069  1.18865  0.093837  0.002974 -0.001121    31.552
   0.42068  0.58766  0.08272  1.18867  0.089422  0.002979 -0.001120    30.014
   0.43705  0.57140  0.08465  1.18868  0.085044  0.002985 -0.001120    28.495
   0.45341  0.55514  0.08647  1.18870  0.080700  0.002990 -0.001119    26.993
   0.46975  0.53889  0.08818  1.18873  0.076398  0.002994 -0.001119    25.513
   0.48606  0.52265  0.08978  1.18876  0.072139  0.002999 -0.001120    24.055
   0.50236  0.50642  0.09127  1.18879  0.067926  0.003003 -0.001121    22.621
   0.51863  0.49021  0.09264  1.18885  0.063766  0.003006 -0.001122    21.212
   0.53487  0.47402  0.09390  1.18892  0.059660  0.003009 -0.001124    19.830
   0.55108  0.45785  0.09503  1.18901  0.055613  0.003010 -0.001127    18.477
   0.56725  0.44172  0.09603  1.18914  0.051631  0.003010 -0.001131    17.154
   0.58335  0.42564  0.09690  1.18932  0.047722  0.003008 -0.001137    15.864
   0.59935  0.40965  0.09765  1.18955  0.043899  0.003004 -0.001145    14.612
   0.61519  0.39382  0.09824  1.18986  0.040171  0.002998 -0.001154    13.398
   0.63085  0.37817  0.09865  1.19030  0.036611  0.002988 -0.001167    12.251
   0.64639  0.36263  0.09885  1.19090  0.033220  0.002974 -0.001184    11.169
   0.66187  0.34716  0.09884  1.19173  0.029996  0.002955 -0.001207    10.152
   0.67728  0.33174  0.09863  1.19284  0.026946  0.002929 -0.001236     9.199
   0.69264  0.31639  0.09821  1.19434  0.024075  0.002897 -0.001275     8.311
   0.70795  0.30109  0.09757  1.19632  0.021390  0.002856 -0.001327     7.489
   0.72321  0.28586  0.09672  1.19895  0.018901  0.002807 -0.001397     6.733
   0.73841  0.27069  0.09564  1.20239  0.016615  0.002748 -0.001491     6.047
   0.75355  0.25561  0.09433  1.20688  0.014538  0.002678 -0.001577     5.430
   0.76863  0.24061  0.09280  1.21267  0.012677  0.002595 -0.001568     4.884
   0.78363  0.22571  0.09103  1.21997  0.011032  0.002501 -0.001284     4.411
   0.79855  0.21092  0.08902  1.22873  0.009603  0.002397 -0.000553     4.006
   0.81339  0.19626  0.08678  1.23902  0.008379  0.002283  0.000690     3.670
   0.82811  0.18175  0.08429  1.25083  0.007350  0.002159  0.002377     3.404
   0.84271  0.16741  0.08155  1.26371  0.006490  0.002030  0.004412     3.196
   0.85717  0.15327  0.07856  1.27692  0.005781  0.001901  0.006636     3.041
   0.87144  0.13937  0.07533  1.28984  0.005188  0.001775  0.008994     2.922
   0.88548  0.12576  0.07185  1.30195  0.004687  0.001655  0.011412     2.832
   0.89921  0.11254  0.06815  1.31291  0.004258  0.001540  0.013856     2.765
   0.91255  0.09978  0.06426  1.32257  0.003882  0.001431  0.016349     2.713
   0.92536  0.08762  0.06020  1.33080  0.003547  0.001326  0.018888     2.674
   0.93750  0.07622  0.05606  1.33763  0.003243  0.001227  0.021561     2.643
   0.94879  0.06572  0.05190  1.34298  0.002967  0.001133  0.024340     2.618
   0.95911  0.05625  0.04782  1.34696  0.002713  0.001045  0.027380     2.596
   0.96837  0.04786  0.04389  1.34943  0.002483  0.000963  0.030585     2.579
   0.97657  0.04055  0.04017  1.35050  0.002272  0.000887  0.034084     2.562
   0.98379  0.03423  0.03668  1.35012  0.002079  0.000817  0.037941     2.545
   0.99012  0.02879  0.03343  1.34811  0.001904  0.000752  0.042058     2.530
   0.99570  0.02411  0.03040  1.34449  0.001742  0.000693  0.046698     2.513
   1.00063  0.02008  0.02756  1.33883  0.001593  0.000638  0.051752     2.496
   1.00502  0.01660  0.02489  1.33085  0.001456  0.000588  0.057444     2.478
   1.00896  0.01357  0.02236  1.31992  0.001330  0.000541  0.063494     2.460
   1.01253  0.01095  0.01995  1.30562  0.001211  0.000497  0.070524     2.439
   1.01577  0.00867  0.01764  1.28665  0.001103  0.000456  0.077797     2.420
   1.01874  0.00671  0.01541  1.26229  0.001002  0.000418  0.085923     2.398
   1.02149  0.00502  0.01324  1.23073  0.000909  0.000383  0.094304     2.376
   1.02404  0.00360  0.01113  1.19030  0.000825  0.000350  0.102766     2.354
   1.02642  0.00242  0.00906  1.13881  0.000749  0.000321  0.110603     2.332
   1.02866  0.00148  0.00703  1.07365  0.000681  0.000295  0.117363     2.307
   1.03077  0.00077  0.00504  0.99244  0.000626  0.000274  0.120215     2.287
   1.03277  0.00029  0.00309  0.89478  0.000581  0.000256  0.119158     2.267
   1.03468  0.00004  0.00120  0.78132  0.000548  0.000243  0.111310     2.254
   1.03651  0.00001 -0.00064  0.65637  0.000524  0.000233  0.098613     2.250
   1.03838  0.00020 -0.00249  0.51226  0.000504  0.000226  0.081472     2.226
   1.04030  0.00065 -0.00436  0.35299  0.000505  0.000226  0.055620     2.237
   1.04230  0.00137 -0.00623  0.18678  0.000502  0.000226  0.029923     2.223
   1.04439  0.00239 -0.00805  0.02504  0.000557  0.000250  0.003600     2.230
   1.04657  0.00369 -0.00980 -0.12357  0.000557  0.000250  0.017753     2.230
   1.04888  0.00527 -0.01148 -0.25697  0.000624  0.000276  0.032155     2.257
   1.05132  0.00712 -0.01307 -0.36800  0.000686  0.000305  0.042065     2.252
   1.05393  0.00925 -0.01459 -0.46241  0.000759  0.000334  0.046873     2.273
   1.05675  0.01167 -0.01603 -0.54045  0.000842  0.000368  0.048791     2.286
   1.05979  0.01438 -0.01741 -0.60597  0.000931  0.000405  0.048839     2.299
   1.06312  0.01744 -0.01873 -0.66099  0.001032  0.000446  0.047395     2.314
   1.06679  0.02087 -0.02000 -0.70759  0.001140  0.000490  0.045335     2.328
   1.07086  0.02476 -0.02123 -0.74713  0.001261  0.000538  0.042633     2.343
   1.07542  0.02916 -0.02242 -0.78122  0.001390  0.000590  0.039959     2.356
   1.08058  0.03419 -0.02357 -0.81029  0.001537  0.000648  0.036828     2.373
   1.08647  0.03998 -0.02467 -0.83568  0.001693  0.000710  0.034096     2.385
   1.09325  0.04667 -0.02572 -0.85757  0.001872  0.000780  0.031149     2.401
   1.10108  0.05445 -0.02670 -0.87631  0.002070  0.000857  0.028348     2.416
   1.11013  0.06345 -0.02758 -0.89218  0.002288  0.000941  0.025705     2.431
   1.12048  0.07377 -0.02833 -0.90533  0.002529  0.001034  0.023233     2.446
   1.13215  0.08543 -0.02891 -0.91597  0.002788  0.001133  0.020998     2.461
   1.14504  0.09832 -0.02929 -0.92431  0.003062  0.001237  0.019006     2.475
   1.15896  0.11223 -0.02947 -0.93063  0.003346  0.001344  0.017262     2.489
   1.17368  0.12696 -0.02945 -0.93532  0.003633  0.001452  0.015771     2.502
   1.18901  0.14228 -0.02924 -0.93869  0.003920  0.001560  0.014486     2.513
   1.20480  0.15806 -0.02887 -0.94116  0.004200  0.001665  0.013421     2.522
   1.22092  0.17418 -0.02837 -0.94283  0.004479  0.001769  0.012475     2.532
   1.23731  0.19056 -0.02776 -0.94405  0.004745  0.001869  0.011707     2.538
   1.25391  0.20714 -0.02707 -0.94495  0.005004  0.001967  0.011048     2.544
   1.27067  0.22389 -0.02630 -0.94557  0.005255  0.002062  0.010471     2.549
   1.28758  0.24078 -0.02549 -0.94611  0.005493  0.002153  0.009998     2.551
   1.30460  0.25777 -0.02465 -0.94662  0.005717  0.002241  0.009604     2.552
   1.32169  0.27484 -0.02379 -0.94717  0.005929  0.002325  0.009278     2.550
   1.33881  0.29194 -0.02292 -0.94787  0.006122  0.002404  0.009033     2.546
   1.35590  0.30901 -0.02207 -0.94867  0.006303  0.002480  0.008825     2.542
   1.37294  0.32603 -0.02124 -0.94973  0.006461  0.002550  0.008694     2.534
   1.38994  0.34301 -0.02043 -0.95105  0.006600  0.002615  0.008613     2.524
   1.40689  0.35994 -0.01967 -0.95274  0.006715  0.002674  0.008601     2.511
   1.42382  0.37686 -0.01894 -0.95483  0.006807  0.002728  0.008646     2.496
   1.44075  0.39378 -0.01827 -0.95750  0.006868  0.002774  0.008776     2.476
   1.45775  0.41076 -0.01762 -0.96084  0.006898  0.002813  0.008984     2.453
   1.47481  0.42781 -0.01697 -0.96405  0.006963  0.002854  0.009046     2.440
   1.49192  0.44491 -0.01629 -0.96712  0.007047  0.002896  0.009026     2.434
   1.50907  0.46204 -0.01560 -0.97005  0.007144  0.002939  0.008957     2.431
   1.52625  0.47921 -0.01490 -0.97284  0.007246  0.002982  0.008864     2.430
   1.54344  0.49639 -0.01420 -0.97554  0.007350  0.003025  0.008766     2.429
   1.56064  0.51357 -0.01350 -0.97812  0.007456  0.003068  0.008659     2.430
   1.57783  0.53074 -0.01280 -0.98065  0.007557  0.003110  0.008567     2.430
   1.59499  0.54790 -0.01211 -0.98318  0.007651  0.003150  0.008492     2.429
   1.61214  0.56503 -0.01143 -0.98571  0.007740  0.003189  0.008431     2.427
   1.62928  0.58215 -0.01076 -0.98825  0.007823  0.003226  0.008384     2.425
   1.64639  0.59926 -0.01011 -0.99087  0.007896  0.003262  0.008361     2.421
   1.66350  0.61635 -0.00947 -0.99356  0.007962  0.003295  0.008351     2.416
   1.68058  0.63342 -0.00885 -0.99638  0.008016  0.003326  0.008369     2.410
   1.69766  0.65049 -0.00825 -0.99931  0.008063  0.003354  0.008401     2.404
   1.71473  0.66755 -0.00768 -1.00241  0.008099  0.003380  0.008455     2.396
   1.73178  0.68459 -0.00712 -1.00569  0.008124  0.003403  0.008532     2.387
   1.74883  0.70164 -0.00659 -1.00915  0.008141  0.003424  0.008623     2.378
   1.76588  0.71867 -0.00608 -1.01286  0.008145  0.003441  0.008744     2.367
   1.78292  0.73570 -0.00560 -1.01681  0.008140  0.003456  0.008882     2.355
   1.79995  0.75273 -0.00514 -1.02105  0.008122  0.003467  0.009048     2.343
   1.81698  0.76976 -0.00471 -1.02558  0.008095  0.003474  0.009234     2.330
   1.83401  0.78678 -0.00431 -1.03049  0.008053  0.003478  0.009455     2.315
   1.85104  0.80381 -0.00393 -1.03577  0.008001  0.003478  0.009701     2.300
   1.86807  0.82084 -0.00357 -1.04153  0.007932  0.003473  0.009990     2.284
   1.88510  0.83786 -0.00324 -1.04778  0.007852  0.003463  0.010315     2.267
   1.90213  0.85489 -0.00294 -1.05466  0.007752  0.003448  0.010700     2.248
   1.91914  0.87190 -0.00266 -1.06222  0.007637  0.003427  0.011136     2.228
   1.93613  0.88889 -0.00241 -1.07058  0.007502  0.003399  0.011644     2.207
   1.95305  0.90581 -0.00218 -1.07998  0.007341  0.003363  0.012257     2.183
   1.96983  0.92258 -0.00197 -1.09056  0.007155  0.003317  0.012989     2.157
   1.98627  0.93902 -0.00179 -1.10255  0.006937  0.003260  0.013881     2.128
   2.00209  0.95483 -0.00163 -1.11620  0.006684  0.003189  0.014989     2.096
   2.01678  0.96953 -0.00150 -1.13151  0.006396  0.003105  0.016353     2.060
   2.02984  0.98258 -0.00139 -1.14876  0.006065  0.003005  0.018099     2.018
   2.04093  0.99368 -0.00131 -1.16752  0.005711  0.002894  0.020216     1.974
   2.04725  1.00000 -0.00126 -1.18755  0.005258  0.002754  0.023432     1.909
   2.04725  1.00010 -0.00001  1.18755  0.211656  0.005726  0.000000    36.963
   2.05356  1.00636 -0.00080  1.18481  0.211756  0.006243  0.000000    33.920
   2.06096  1.01372 -0.00156  1.18141  0.211620  0.006891  0.000000    30.708
   2.06964  1.02236 -0.00236  1.17740  0.211337  0.007661  0.000000    27.587
   2.07981  1.03250 -0.00319  1.17269  0.210857  0.008573  0.000000    24.594
   2.09174  1.04440 -0.00406  1.16711  0.210131  0.009666  0.000000    21.739
   2.10574  1.05836 -0.00495  1.16058  0.209070  0.010963  0.000000    19.071
   2.12215  1.07475 -0.00586  1.15291  0.207571  0.012503  0.000000    16.602
   2.14139  1.09397 -0.00675  1.14392  0.205501  0.014336  0.000000    14.335
   2.16396  1.11652 -0.00761  1.13335  0.202692  0.016524  0.000000    12.267
   2.19042  1.14297 -0.00837  1.12099  0.198919  0.019124  0.000000    10.402
   2.22145  1.17400 -0.00900  1.10645  0.193923  0.022240  0.000000     8.720
   2.25784  1.21039 -0.00941  1.08906  0.187406  0.026041  0.000000     7.197
   2.30052  1.25307 -0.00950  1.06800  0.179013  0.030748  0.000000     5.822
   2.35057  1.30311 -0.00915  1.04183  0.168424  0.036761  0.000000     4.582
   2.40926  1.36180 -0.00821  1.00774  0.155537  0.044918  0.000000     3.463
   2.47809  1.43060 -0.00648  0.97779  0.139689  0.052334  0.000000     2.669
   2.55880  1.51127 -0.00372  0.95721  0.122012  0.057466  0.000000     2.123
   2.65345  1.60583  0.00035  0.94787  0.104506  0.059727  0.000000     1.750
   2.76445  1.71668  0.00609  0.94879  0.089099  0.059517  0.000000     1.497
   2.89461  1.84661  0.01391  0.95694  0.076739  0.057804  0.000000     1.328
   3.04725  1.99889  0.02432  0.98883  0.062314  0.051941  0.000000     1.200
