#    s        x        y     Ue/Vinf    Dstar     Theta      Cf       H
   0.00000  1.00000  0.00126  1.19000  0.283733  0.017257 -0.000198    16.442
   0.00630  0.99392  0.00292  1.19109  0.281712  0.016966 -0.000201    16.605
   0.01727  0.98333  0.00577  1.19307  0.278164  0.016448 -0.000208    16.912
   0.03004  0.97098  0.00904  1.19545  0.273932  0.015834 -0.000216    17.300
   0.04430  0.95718  0.01262  1.19821  0.269145  0.015137 -0.000226    17.781
   0.05958  0.94237  0.01638  1.20130  0.263966  0.014375 -0.000239    18.362
   0.07546  0.92696  0.02021  1.20467  0.258540  0.013565 -0.000253    19.059
   0.09164  0.91123  0.02403  1.20831  0.252972  0.012716 -0.000270    19.894
   0.10799  0.89533  0.02780  1.21222  0.247316  0.011831 -0.000291    20.904
   0.12441  0.87933  0.03149  1.21642  0.241599  0.010908 -0.000316    22.149
   0.14087  0.86327  0.03511  1.22097  0.235835  0.009940 -0.000328    23.725
   0.15734  0.84718  0.03864  1.22594  0.230017  0.008918 -0.000331    25.794
   0.17383  0.83106  0.04208  1.23144  0.224141  0.007825 -0.000334    28.644
   0.19032  0.81492  0.04544  1.23765  0.218180  0.006638 -0.000337    32.870
   0.20680  0.79875  0.04870  1.24502  0.212069  0.005283 -0.000341    40.142
   0.22329  0.78258  0.05188  1.25472  0.205623  0.003560 -0.000346    57.760
   0.23978  0.76638  0.05496  1.26172  0.199607  0.002398 -0.001457    83.252
   0.25626  0.75017  0.05796  1.26185  0.194580  0.002384 -0.001466    81.609
   0.27274  0.73395  0.06086  1.26198  0.189480  0.002372 -0.001474    79.880
   0.28921  0.71772  0.06368  1.26211  0.184326  0.002361 -0.001481    78.077
   0.30568  0.70148  0.06640  1.26223  0.179129  0.002350 -0.001488    76.210
   0.32214  0.68523  0.06902  1.26235  0.173897  0.002341 -0.001494    74.283
   0.33859  0.66898  0.07155  1.26247  0.168638  0.002332 -0.001500    72.304
   0.35503  0.65272  0.07398  1.26258  0.163356  0.002325 -0.001506    70.275
   0.37146  0.63645  0.07632  1.26269  0.158055  0.002318 -0.001511    68.200
   0.38788  0.62019  0.07855  1.26280  0.152739  0.002311 -0.001516    66.082
   0.40429  0.60392  0.08069  1.26291  0.147416  0.002306 -0.001520    63.927
   0.42068  0.58766  0.08272  1.26302  0.142085  0.002301 -0.001523    61.737
   0.43705  0.57140  0.08465  1.26312  0.136752  0.002298 -0.001527    59.516
   0.45341  0.55514  0.08647  1.26321  0.131419  0.002295 -0.001529    57.268
   0.46975  0.53889  0.08818  1.26331  0.126090  0.002293 -0.001532    54.997
   0.48606  0.52265  0.08978  1.26340  0.120768  0.002291 -0.001533    52.706
   0.50236  0.50642  0.09127  1.26349  0.115456  0.002291 -0.001535    50.399
   0.51863  0.49021  0.09264  1.26357  0.110158  0.002291 -0.001535    48.082
   0.53487  0.47402  0.09390  1.26365  0.104877  0.002292 -0.001536    45.759
   0.55108  0.45785  0.09503  1.26372  0.099615  0.002294 -0.001536    43.431
   0.56725  0.44172  0.09603  1.26379  0.094381  0.002296 -0.001536    41.107
   0.58335  0.42564  0.09690  1.26385  0.089179  0.002299 -0.001536    38.792
   0.59935  0.40965  0.09765  1.26391  0.084024  0.002302 -0.001535    36.493
   0.61519  0.39382  0.09824  1.26396  0.078928  0.002307 -0.001534    34.218
   0.63085  0.37817  0.09865  1.26401  0.073964  0.002310 -0.001534    32.013
   0.64639  0.36263  0.09885  1.26408  0.069126  0.002314 -0.001534    29.876
   0.66187  0.34716  0.09884  1.26417  0.064408  0.002316 -0.001535    27.807
   0.67728  0.33174  0.09863  1.26428  0.059815  0.002318 -0.001538    25.808
   0.69264  0.31639  0.09821  1.26443  0.055348  0.002318 -0.001541    23.878
   0.70795  0.30109  0.09757  1.26462  0.051013  0.002317 -0.001547    22.020
   0.72321  0.28586  0.09672  1.26487  0.046817  0.002313 -0.001554    20.236
   0.73841  0.27069  0.09564  1.26520  0.042763  0.002308 -0.001564    18.528
   0.75355  0.25561  0.09433  1.26563  0.038862  0.002300 -0.001577    16.898
   0.76863  0.24061  0.09280  1.26621  0.035118  0.002288 -0.001595    15.347
   0.78363  0.22571  0.09103  1.26698  0.031540  0.002273 -0.001618    13.878
   0.79855  0.21092  0.08902  1.26802  0.028136  0.002252 -0.001647    12.492
   0.81339  0.19626  0.08678  1.26941  0.024912  0.002226 -0.001687    11.192
   0.82811  0.18175  0.08429  1.27129  0.021882  0.002193 -0.001739     9.980
   0.84271  0.16741  0.08155  1.27383  0.019054  0.002151 -0.001809     8.858
   0.85717  0.15327  0.07856  1.27729  0.016440  0.002100 -0.001906     7.829
   0.87144  0.13937  0.07533  1.28198  0.014053  0.002037 -0.002042     6.898
   0.88548  0.12576  0.07185  1.28834  0.011905  0.001962 -0.002233     6.067
   0.89921  0.11254  0.06815  1.29694  0.010010  0.001874 -0.002421     5.342
   0.91255  0.09978  0.06426  1.30833  0.008372  0.001771 -0.002369     4.727
   0.92536  0.08762  0.06020  1.32284  0.006995  0.001657 -0.001637     4.223
   0.93750  0.07622  0.05606  1.34015  0.005863  0.001535  0.000063     3.821
   0.94879  0.06572  0.05190  1.35993  0.004955  0.001409  0.002672     3.518
   0.95911  0.05625  0.04782  1.38116  0.004234  0.001284  0.005971     3.296
   0.96837  0.04786  0.04389  1.40258  0.003661  0.001168  0.009760     3.135
   0.97657  0.04055  0.04017  1.42322  0.003200  0.001061  0.013894     3.017
   0.98379  0.03423  0.03668  1.44254  0.002823  0.000965  0.018380     2.926
   0.99012  0.02879  0.03343  1.46030  0.002506  0.000879  0.023287     2.853
   0.99570  0.02411  0.03040  1.47631  0.002236  0.000801  0.028669     2.791
   1.00063  0.02008  0.02756  1.49049  0.002001  0.000731  0.034630     2.738
   1.00502  0.01660  0.02489  1.50272  0.001792  0.000667  0.041493     2.688
   1.00896  0.01357  0.02236  1.51250  0.001609  0.000608  0.049018     2.645
   1.01253  0.01095  0.01995  1.51965  0.001441  0.000554  0.057892     2.600
   1.01577  0.00867  0.01764  1.52318  0.001292  0.000505  0.067796     2.560
   1.01874  0.00671  0.01541  1.52230  0.001155  0.000459  0.079266     2.518
   1.02149  0.00502  0.01324  1.51542  0.001033  0.000417  0.092136     2.478
   1.02404  0.00360  0.01113  1.50069  0.000924  0.000379  0.106169     2.440
   1.02642  0.00242  0.00906  1.47587  0.000827  0.000344  0.121202     2.402
   1.02866  0.00148  0.00703  1.43789  0.000742  0.000314  0.136770     2.363
   1.03077  0.00077  0.00504  1.38350  0.000672  0.000288  0.149553     2.333
   1.03277  0.00029  0.00309  1.31122  0.000614  0.000267  0.160000     2.300
   1.03468  0.00004  0.00120  1.22002  0.000573  0.000251  0.162286     2.283
   1.03651  0.00001 -0.00064  1.11298  0.000538  0.000238  0.160600     2.262
   1.03838  0.00020 -0.00249  0.98254  0.000514  0.000229  0.150927     2.243
   1.04030  0.00065 -0.00436  0.83033  0.000503  0.000225  0.131561     2.233
   1.04230  0.00137 -0.00623  0.66249  0.000503  0.000227  0.106408     2.219
   1.04439  0.00239 -0.00805  0.48829  0.000522  0.000235  0.075833     2.215
   1.04657  0.00369 -0.00980  0.32175  0.000550  0.000247  0.047086     2.223
   1.04888  0.00527 -0.01148  0.16628  0.000589  0.000266  0.022857     2.216
   1.05132  0.00712 -0.01307  0.03291  0.000686  0.000308  0.003835     2.230
   1.05393  0.00925 -0.01459 -0.08407  0.000686  0.000308  0.009799     2.230
   1.05675  0.01167 -0.01603 -0.18838  0.000785  0.000347  0.018674     2.260
   1.05979  0.01438 -0.01741 -0.27565  0.000864  0.000384  0.025082     2.248
   1.06312  0.01744 -0.01873 -0.35198  0.000956  0.000421  0.028351     2.271
   1.06679  0.02087 -0.02000 -0.41794  0.001052  0.000462  0.030432     2.277
   1.07086  0.02476 -0.02123 -0.47651  0.001156  0.000505  0.031245     2.288
   1.07542  0.02916 -0.02242 -0.52809  0.001274  0.000554  0.031017     2.302
   1.08058  0.03419 -0.02357 -0.57384  0.001404  0.000607  0.030268     2.313
   1.08647  0.03998 -0.02467 -0.61510  0.001543  0.000664  0.029237     2.323
   1.09325  0.04667 -0.02572 -0.65233  0.001701  0.000728  0.027810     2.335
   1.10108  0.05445 -0.02670 -0.68562  0.001877  0.000799  0.026143     2.349
   1.11013  0.06345 -0.02758 -0.71523  0.002072  0.000878  0.024399     2.361
   1.12048  0.07377 -0.02833 -0.74135  0.002286  0.000963  0.022659     2.373
   1.13215  0.08543 -0.02891 -0.76404  0.002516  0.001055  0.020968     2.385
   1.14504  0.09832 -0.02929 -0.78339  0.002758  0.001151  0.019382     2.397
   1.15896  0.11223 -0.02947 -0.79963  0.003009  0.001249  0.017934     2.408
   1.17368  0.12696 -0.02945 -0.81313  0.003263  0.001349  0.016642     2.419
   1.18901  0.14228 -0.02924 -0.82424  0.003519  0.001449  0.015477     2.429
   1.20480  0.15806 -0.02887 -0.83369  0.003763  0.001545  0.014546     2.435
   1.22092  0.17418 -0.02837 -0.84156  0.004009  0.001641  0.013662     2.444
   1.23731  0.19056 -0.02776 -0.84833  0.004245  0.001733  0.012934     2.449
   1.25391  0.20714 -0.02707 -0.85421  0.004474  0.001823  0.012298     2.454
   1.27067  0.22389 -0.02630 -0.85938  0.004695  0.001910  0.011738     2.458
   1.28758  0.24078 -0.02549 -0.86407  0.004905  0.001994  0.011274     2.460
   1.30460  0.25777 -0.02465 -0.86839  0.005104  0.002074  0.010876     2.461
   1.32169  0.27484 -0.02379 -0.87243  0.005294  0.002151  0.010536     2.461
   1.33881  0.29194 -0.02292 -0.87638  0.005466  0.002223  0.010280     2.458
   1.35590  0.30901 -0.02207 -0.88020  0.005628  0.002292  0.010057     2.455
   1.37294  0.32603 -0.02124 -0.88405  0.005773  0.002356  0.009902     2.450
   1.38994  0.34301 -0.02043 -0.88801  0.005901  0.002416  0.009804     2.443
   1.40689  0.35994 -0.01967 -0.89220  0.006008  0.002469  0.009773     2.433
   1.42382  0.37686 -0.01894 -0.89668  0.006096  0.002518  0.009798     2.421
   1.44075  0.39378 -0.01827 -0.90167  0.006155  0.002559  0.009914     2.405
   1.45775  0.41076 -0.01762 -0.90732  0.006185  0.002592  0.010122     2.386
   1.47481  0.42781 -0.01697 -0.91271  0.006252  0.002629  0.010150     2.378
   1.49192  0.44491 -0.01629 -0.91785  0.006336  0.002667  0.010097     2.376
   1.50907  0.46204 -0.01560 -0.92272  0.006431  0.002706  0.009996     2.376
   1.52625  0.47921 -0.01490 -0.92738  0.006530  0.002746  0.009880     2.378
   1.54344  0.49639 -0.01420 -0.93183  0.006629  0.002786  0.009761     2.380
   1.56064  0.51357 -0.01350 -0.93612  0.006727  0.002825  0.009645     2.381
   1.57783  0.53074 -0.01280 -0.94030  0.006821  0.002863  0.009548     2.382
   1.59499  0.54790 -0.01211 -0.94443  0.006907  0.002900  0.009474     2.382
   1.61214  0.56503 -0.01143 -0.94850  0.006988  0.002935  0.009413     2.381
   1.62928  0.58215 -0.01076 -0.95257  0.007063  0.002969  0.009372     2.379
   1.64639  0.59926 -0.01011 -0.95669  0.007128  0.003001  0.009356     2.376
   1.66350  0.61635 -0.00947 -0.96085  0.007187  0.003030  0.009355     2.372
   1.68058  0.63342 -0.00885 -0.96513  0.007235  0.003058  0.009384     2.366
   1.69766  0.65049 -0.00825 -0.96949  0.007278  0.003083  0.009422     2.361
   1.71473  0.66755 -0.00768 -0.97401  0.007310  0.003106  0.009488     2.354
   1.73178  0.68459 -0.00712 -0.97872  0.007333  0.003126  0.009575     2.346
   1.74883  0.70164 -0.00659 -0.98358  0.007350  0.003143  0.009676     2.338
   1.76588  0.71867 -0.00608 -0.98871  0.007354  0.003158  0.009809     2.329
   1.78292  0.73570 -0.00560 -0.99405  0.007351  0.003170  0.009957     2.319
   1.79995  0.75273 -0.00514 -0.99970  0.007337  0.003178  0.010135     2.308
   1.81698  0.76976 -0.00471 -1.00562  0.007315  0.003184  0.010330     2.298
   1.83401  0.78678 -0.00431 -1.01194  0.007281  0.003186  0.010564     2.285
   1.85104  0.80381 -0.00393 -1.01862  0.007238  0.003184  0.010820     2.273
   1.86807  0.82084 -0.00357 -1.02581  0.007180  0.003178  0.011125     2.259
   1.88510  0.83786 -0.00324 -1.03348  0.007113  0.003169  0.011463     2.245
   1.90213  0.85489 -0.00294 -1.04181  0.007028  0.003153  0.011864     2.229
   1.91914  0.87190 -0.00266 -1.05083  0.006930  0.003133  0.012318     2.212
   1.93613  0.88889 -0.00241 -1.06066  0.006816  0.003107  0.012843     2.194
   1.95305  0.90581 -0.00218 -1.07158  0.006678  0.003072  0.013484     2.174
   1.96983  0.92258 -0.00197 -1.08367  0.006518  0.003030  0.014242     2.151
   1.98627  0.93902 -0.00179 -1.09721  0.006329  0.002977  0.015171     2.126
   2.00209  0.95483 -0.00163 -1.11240  0.006108  0.002913  0.016327     2.097
   2.01678  0.96953 -0.00150 -1.12923  0.005856  0.002836  0.017751     2.065
   2.02984  0.98258 -0.00139 -1.14798  0.005561  0.002744  0.019600     2.026
   2.04093  0.99368 -0.00131 -1.16821  0.005242  0.002642  0.021857     1.984
   2.04725  1.00000 -0.00126 -1.19000  0.004808  0.002508  0.025532     1.917
   2.04725  1.00010 -0.00001  1.19000  0.291016  0.019765  0.000000    14.724
   2.05356  1.00636 -0.00079  1.18836  0.291278  0.020220  0.000000    14.406
   2.06096  1.01372 -0.00152  1.18631  0.291363  0.020795  0.000000    14.011
   2.06964  1.02237 -0.00225  1.18389  0.291371  0.021475  0.000000    13.568
   2.07981  1.03252 -0.00299  1.18105  0.291266  0.022280  0.000000    13.073
   2.09174  1.04443 -0.00373  1.17771  0.291007  0.023234  0.000000    12.525
   2.10574  1.05840 -0.00444  1.17378  0.290540  0.024365  0.000000    11.925
   2.12215  1.07480 -0.00511  1.16916  0.289791  0.025708  0.000000    11.272
   2.14139  1.09403 -0.00568  1.16371  0.288662  0.027307  0.000000    10.571
   2.16396  1.11659 -0.00611  1.15729  0.287026  0.029215  0.000000     9.825
   2.19042  1.14306 -0.00632  1.14970  0.284720  0.031497  0.000000     9.039
   2.22145  1.17409 -0.00624  1.14071  0.281533  0.034239  0.000000     8.223
   2.25784  1.21048 -0.00573  1.13003  0.277197  0.037546  0.000000     7.383
   2.30052  1.25314 -0.00466  1.11727  0.271377  0.041565  0.000000     6.529
   2.35057  1.30316 -0.00284  1.10191  0.263666  0.046496  0.000000     5.671
   2.40926  1.36178 -0.00004  1.08313  0.253602  0.052661  0.000000     4.816
   2.47809  1.43049  0.00403  1.05933  0.240774  0.060698  0.000000     3.967
   2.55880  1.51100  0.00970  1.02954  0.224763  0.071133  0.000000     3.160
   2.65345  1.60533  0.01741  1.00553  0.204324  0.079779  0.000000     2.561
   2.76445  1.71586  0.02766  0.98974  0.180038  0.085445  0.000000     2.107
   2.89461  1.84533  0.04106  0.98642  0.152322  0.086583  0.000000     1.759
   3.04725  1.99699  0.05833  1.04855  0.097229  0.069583  0.000000     1.397
