#    s        x        y     Ue/Vinf    Dstar     Theta      Cf       H
   0.00000  1.00000  0.00126  1.40885  0.615751  0.032978 -0.000122    18.671
   0.00630  0.99392  0.00292  1.40928  0.612832  0.032775 -0.000123    18.698
   0.01727  0.98333  0.00577  1.41002  0.607736  0.032420 -0.000124    18.746
   0.03004  0.97098  0.00904  1.41088  0.601594  0.032009 -0.000126    18.795
   0.04430  0.95718  0.01262  1.41186  0.594580  0.031551 -0.000128    18.845
   0.05958  0.94237  0.01638  1.41292  0.586918  0.031061 -0.000130    18.896
   0.07546  0.92696  0.02021  1.41404  0.578825  0.030553 -0.000132    18.945
   0.09164  0.91123  0.02403  1.41519  0.570456  0.030036 -0.000134    18.993
   0.10799  0.89533  0.02780  1.41637  0.561902  0.029513 -0.000137    19.039
   0.12441  0.87933  0.03149  1.41758  0.553209  0.028989 -0.000139    19.084
   0.14087  0.86327  0.03511  1.41881  0.544411  0.028463 -0.000142    19.127
   0.15734  0.84718  0.03864  1.42007  0.535518  0.027936 -0.000145    19.169
   0.17383  0.83106  0.04208  1.42135  0.526544  0.027409 -0.000148    19.211
   0.19032  0.81492  0.04544  1.42265  0.517496  0.026881 -0.000151    19.251
   0.20680  0.79875  0.04870  1.42398  0.508378  0.026352 -0.000154    19.291
   0.22329  0.78258  0.05188  1.42534  0.499189  0.025823 -0.000157    19.331
   0.23978  0.76638  0.05496  1.42673  0.489935  0.025293 -0.000161    19.370
   0.25626  0.75017  0.05796  1.42814  0.480627  0.024763 -0.000164    19.409
   0.27274  0.73395  0.06086  1.42959  0.471252  0.024231 -0.000168    19.448
   0.28921  0.71772  0.06368  1.43107  0.461824  0.023699 -0.000172    19.487
   0.30568  0.70148  0.06640  1.43259  0.452337  0.023165 -0.000176    19.526
   0.32214  0.68523  0.06902  1.43415  0.442797  0.022631 -0.000180    19.566
   0.33859  0.66898  0.07155  1.43574  0.433205  0.022095 -0.000185    19.606
   0.35503  0.65272  0.07398  1.43738  0.423561  0.021558 -0.000190    19.648
   0.37146  0.63645  0.07632  1.43906  0.413870  0.021019 -0.000195    19.690
   0.38788  0.62019  0.07855  1.44079  0.404124  0.020479 -0.000200    19.734
   0.40429  0.60392  0.08069  1.44257  0.394334  0.019937 -0.000206    19.779
   0.42068  0.58766  0.08272  1.44440  0.384497  0.019393 -0.000212    19.826
   0.43705  0.57140  0.08465  1.44629  0.374618  0.018847 -0.000218    19.876
   0.45341  0.55514  0.08647  1.44825  0.364688  0.018299 -0.000225    19.929
   0.46975  0.53889  0.08818  1.45027  0.354721  0.017748 -0.000232    19.986
   0.48606  0.52265  0.08978  1.45236  0.344711  0.017195 -0.000240    20.047
   0.50236  0.50642  0.09127  1.45453  0.334655  0.016638 -0.000249    20.113
   0.51863  0.49021  0.09264  1.45678  0.324565  0.016079 -0.000258    20.186
   0.53487  0.47402  0.09390  1.45913  0.314430  0.015515 -0.000267    20.266
   0.55108  0.45785  0.09503  1.46157  0.304264  0.014948 -0.000278    20.355
   0.56725  0.44172  0.09603  1.46412  0.294060  0.014376 -0.000289    20.454
   0.58335  0.42564  0.09690  1.46678  0.283833  0.013801 -0.000302    20.566
   0.59935  0.40965  0.09765  1.46961  0.273596  0.013214 -0.000316    20.705
   0.61519  0.39382  0.09824  1.47257  0.263378  0.012623 -0.000331    20.865
   0.63085  0.37817  0.09865  1.47567  0.253253  0.012029 -0.000348    21.053
   0.64639  0.36263  0.09885  1.47894  0.243198  0.011429 -0.000367    21.280
   0.66187  0.34716  0.09884  1.48241  0.233201  0.010819 -0.000388    21.554
   0.67728  0.33174  0.09863  1.48612  0.223254  0.010198 -0.000413    21.892
   0.69264  0.31639  0.09821  1.49010  0.213351  0.009563 -0.000441    22.309
   0.70795  0.30109  0.09757  1.49439  0.203505  0.008912 -0.000474    22.834
   0.72321  0.28586  0.09672  1.49906  0.193708  0.008241 -0.000494    23.505
   0.73841  0.27069  0.09564  1.50417  0.183961  0.007546 -0.000498    24.379
   0.75355  0.25561  0.09433  1.50983  0.174267  0.006820 -0.000502    25.551
   0.76863  0.24061  0.09280  1.51615  0.164630  0.006061 -0.000506    27.164
   0.78363  0.22571  0.09103  1.52336  0.155033  0.005249 -0.000511    29.533
   0.79855  0.21092  0.08902  1.53187  0.145454  0.004358 -0.000516    33.375
   0.81339  0.19626  0.08678  1.54252  0.135855  0.003325 -0.000523    40.856
   0.82811  0.18175  0.08429  1.55841  0.126013  0.001873 -0.000534    67.275
   0.84271  0.16741  0.08155  1.56873  0.116749  0.001052 -0.004122   110.997
   0.85717  0.15327  0.07856  1.56936  0.108216  0.001018 -0.004263   106.329
   0.87144  0.13937  0.07533  1.57005  0.099699  0.000984 -0.004413   101.332
   0.88548  0.12576  0.07185  1.57080  0.091249  0.000950 -0.004573    96.024
   0.89921  0.11254  0.06815  1.57161  0.082917  0.000917 -0.004742    90.401
   0.91255  0.09978  0.06426  1.57249  0.074764  0.000885 -0.004918    84.464
   0.92536  0.08762  0.06020  1.57343  0.066865  0.000855 -0.005099    78.221
   0.93750  0.07622  0.05606  1.57442  0.059325  0.000827 -0.005278    71.744
   0.94879  0.06572  0.05190  1.57544  0.052251  0.000802 -0.005450    65.147
   0.95911  0.05625  0.04782  1.57646  0.045744  0.000781 -0.005608    58.590
   0.96837  0.04786  0.04389  1.57746  0.039853  0.000763 -0.005748    52.212
   0.97657  0.04055  0.04017  1.57842  0.034611  0.000749 -0.005869    46.196
   0.98379  0.03423  0.03668  1.57934  0.029972  0.000738 -0.005971    40.604
   0.99012  0.02879  0.03343  1.58022  0.025892  0.000729 -0.006061    35.498
   0.99570  0.02411  0.03040  1.58109  0.022303  0.000722 -0.006143    30.884
   1.00063  0.02008  0.02756  1.58197  0.019137  0.000716 -0.006223    26.733
   1.00502  0.01660  0.02489  1.58292  0.016336  0.000710 -0.006308    23.013
   1.00896  0.01357  0.02236  1.58402  0.013856  0.000703 -0.006407    19.697
   1.01253  0.01095  0.01995  1.58535  0.011647  0.000696 -0.006531    16.731
   1.01577  0.00867  0.01764  1.58713  0.009686  0.000687 -0.006696    14.101
   1.01874  0.00671  0.01541  1.58961  0.007948  0.000675 -0.006928    11.775
   1.02149  0.00502  0.01324  1.59327  0.006412  0.000659 -0.007273     9.726
   1.02404  0.00360  0.01113  1.59886  0.005085  0.000638 -0.007815     7.964
   1.02642  0.00242  0.00906  1.60755  0.003940  0.000611 -0.008740     6.448
   1.02866  0.00148  0.00703  1.62133  0.002992  0.000575 -0.009815     5.199
   1.03077  0.00077  0.00504  1.64250  0.002229  0.000531 -0.006060     4.199
   1.03277  0.00029  0.00309  1.67191  0.001652  0.000478  0.012120     3.456
   1.03468  0.00004  0.00120  1.70819  0.001240  0.000419  0.046867     2.963
   1.03651  0.00001 -0.00064  1.73954  0.000965  0.000363  0.092852     2.655
   1.03838  0.00020 -0.00249  1.75006  0.000784  0.000318  0.142547     2.462
   1.04030  0.00065 -0.00436  1.72331  0.000668  0.000286  0.186996     2.335
   1.04230  0.00137 -0.00623  1.64943  0.000608  0.000268  0.210401     2.264
   1.04439  0.00239 -0.00805  1.53500  0.000582  0.000262  0.212972     2.219
   1.04657  0.00369 -0.00980  1.39255  0.000583  0.000266  0.196971     2.195
   1.04888  0.00527 -0.01148  1.23829  0.000604  0.000276  0.170839     2.184
   1.05132  0.00712 -0.01307  1.08405  0.000637  0.000293  0.142517     2.178
   1.05393  0.00925 -0.01459  0.93677  0.000682  0.000313  0.114545     2.182
   1.05675  0.01167 -0.01603  0.79882  0.000730  0.000336  0.091892     2.174
   1.05979  0.01438 -0.01741  0.67003  0.000798  0.000365  0.069900     2.184
   1.06312  0.01744 -0.01873  0.55372  0.000863  0.000395  0.053277     2.187
   1.06679  0.02087 -0.02000  0.44661  0.000939  0.000427  0.039092     2.199
   1.07086  0.02476 -0.02123  0.34665  0.001013  0.000462  0.028325     2.191
   1.07542  0.02916 -0.02242  0.25354  0.001122  0.000507  0.018367     2.211
   1.08058  0.03419 -0.02357  0.16861  0.001201  0.000541  0.011351     2.218
   1.08647  0.03998 -0.02467  0.08603  0.001300  0.000585  0.005331     2.222
   1.09325  0.04667 -0.02572  0.01038  0.001516  0.000680  0.000547     2.230
   1.10108  0.05445 -0.02670 -0.06147  0.001516  0.000680  0.003243     2.230
   1.11013  0.06345 -0.02758 -0.12957  0.001743  0.000770  0.005769     2.263
   1.12048  0.07377 -0.02833 -0.19197  0.001877  0.000839  0.008121     2.238
   1.13215  0.08543 -0.02891 -0.25028  0.002062  0.000909  0.009368     2.269
   1.14504  0.09832 -0.02929 -0.30205  0.002240  0.000988  0.010425     2.267
   1.15896  0.11223 -0.02947 -0.34858  0.002428  0.001066  0.010995     2.277
   1.17368  0.12696 -0.02945 -0.38975  0.002611  0.001144  0.011381     2.282
   1.18901  0.14228 -0.02924 -0.42582  0.002802  0.001223  0.011488     2.291
   1.20480  0.15806 -0.02887 -0.45777  0.002978  0.001298  0.011585     2.294
   1.22092  0.17418 -0.02837 -0.48646  0.003147  0.001370  0.011617     2.297
   1.23731  0.19056 -0.02776 -0.51183  0.003325  0.001442  0.011478     2.306
   1.25391  0.20714 -0.02707 -0.53489  0.003482  0.001510  0.011452     2.306
   1.27067  0.22389 -0.02630 -0.55592  0.003637  0.001575  0.011357     2.309
   1.28758  0.24078 -0.02549 -0.57525  0.003785  0.001637  0.011271     2.312
   1.30460  0.25777 -0.02465 -0.59309  0.003928  0.001698  0.011173     2.314
   1.32169  0.27484 -0.02379 -0.60984  0.004057  0.001754  0.011127     2.313
   1.33881  0.29194 -0.02292 -0.62571  0.004175  0.001806  0.011108     2.312
   1.35590  0.30901 -0.02207 -0.64060  0.004294  0.001856  0.011046     2.313
   1.37294  0.32603 -0.02124 -0.65499  0.004391  0.001901  0.011081     2.310
   1.38994  0.34301 -0.02043 -0.66883  0.004484  0.001943  0.011105     2.307
   1.40689  0.35994 -0.01967 -0.68252  0.004556  0.001979  0.011210     2.302
   1.42382  0.37686 -0.01894 -0.69606  0.004620  0.002012  0.011331     2.297
   1.44075  0.39378 -0.01827 -0.70975  0.004665  0.002038  0.011523     2.289
   1.45775  0.41076 -0.01762 -0.72409  0.004681  0.002056  0.011854     2.277
   1.47481  0.42781 -0.01697 -0.73790  0.004734  0.002079  0.011936     2.277
   1.49192  0.44491 -0.01629 -0.75124  0.004794  0.002103  0.011972     2.280
   1.50907  0.46204 -0.01560 -0.76403  0.004861  0.002129  0.011966     2.283
   1.52625  0.47921 -0.01490 -0.77632  0.004930  0.002156  0.011947     2.287
   1.54344  0.49639 -0.01420 -0.78840  0.004987  0.002180  0.011990     2.287
   1.56064  0.51357 -0.01350 -0.80006  0.005049  0.002206  0.011998     2.289
   1.57783  0.53074 -0.01280 -0.81166  0.005097  0.002228  0.012078     2.288
   1.59499  0.54790 -0.01211 -0.82313  0.005141  0.002249  0.012166     2.286
   1.61214  0.56503 -0.01143 -0.83447  0.005183  0.002269  0.012251     2.284
   1.62928  0.58215 -0.01076 -0.84575  0.005219  0.002287  0.012359     2.282
   1.64639  0.59926 -0.01011 -0.85715  0.005244  0.002303  0.012513     2.277
   1.66350  0.61635 -0.00947 -0.86857  0.005267  0.002317  0.012669     2.274
   1.68058  0.63342 -0.00885 -0.88015  0.005281  0.002328  0.012862     2.269
   1.69766  0.65049 -0.00825 -0.89192  0.005290  0.002337  0.013076     2.264
   1.71473  0.66755 -0.00768 -0.90384  0.005294  0.002344  0.013301     2.258
   1.73178  0.68459 -0.00712 -0.91612  0.005287  0.002348  0.013580     2.252
   1.74883  0.70164 -0.00659 -0.92851  0.005283  0.002351  0.013833     2.247
   1.76588  0.71867 -0.00608 -0.94146  0.005261  0.002349  0.014186     2.239
   1.78292  0.73570 -0.00560 -0.95472  0.005239  0.002346  0.014533     2.233
   1.79995  0.75273 -0.00514 -0.96853  0.005206  0.002340  0.014941     2.225
   1.81698  0.76976 -0.00471 -0.98273  0.005173  0.002332  0.015349     2.218
   1.83401  0.78678 -0.00431 -0.99776  0.005121  0.002319  0.015875     2.209
   1.85104  0.80381 -0.00393 -1.01330  0.005072  0.002304  0.016389     2.201
   1.86807  0.82084 -0.00357 -1.02989  0.005004  0.002284  0.017041     2.190
   1.88510  0.83786 -0.00324 -1.04736  0.004932  0.002262  0.017736     2.181
   1.90213  0.85489 -0.00294 -1.06610  0.004845  0.002234  0.018563     2.169
   1.91914  0.87190 -0.00266 -1.08618  0.004748  0.002201  0.019498     2.157
   1.93613  0.88889 -0.00241 -1.10794  0.004637  0.002163  0.020599     2.144
   1.95305  0.90581 -0.00218 -1.13184  0.004506  0.002117  0.021942     2.128
   1.96983  0.92258 -0.00197 -1.15826  0.004357  0.002064  0.023567     2.111
   1.98627  0.93902 -0.00179 -1.18770  0.004185  0.002002  0.025586     2.090
   2.00209  0.95483 -0.00163 -1.22075  0.003984  0.001929  0.028176     2.066
   2.01678  0.96953 -0.00150 -1.25795  0.003750  0.001842  0.031600     2.036
   2.02984  0.98258 -0.00139 -1.30058  0.003468  0.001738  0.036465     1.995
   2.04093  0.99368 -0.00131 -1.34903  0.003156  0.001620  0.043088     1.948
   2.04725  1.00000 -0.00126 -1.40885  0.002656  0.001445  0.057922     1.838
   2.04725  1.00010 -0.00001  1.40885  0.620882  0.034423  0.000000    18.037
   2.05356  1.00637 -0.00074  1.40804  0.621820  0.034823  0.000000    17.857
   2.06096  1.01374 -0.00129  1.40700  0.622604  0.035332  0.000000    17.622
   2.06964  1.02241 -0.00171  1.40578  0.623387  0.035933  0.000000    17.348
   2.07981  1.03258 -0.00198  1.40435  0.624122  0.036644  0.000000    17.032
   2.09174  1.04451 -0.00205  1.40266  0.624765  0.037485  0.000000    16.667
   2.10574  1.05851 -0.00184  1.40067  0.625249  0.038481  0.000000    16.248
   2.12215  1.07490 -0.00127  1.39832  0.625482  0.039661  0.000000    15.771
   2.14139  1.09412 -0.00021  1.39555  0.625335  0.041062  0.000000    15.229
   2.16396  1.11662  0.00149  1.39228  0.624633  0.042727  0.000000    14.619
   2.19042  1.14296  0.00402  1.38841  0.623137  0.044709  0.000000    13.938
   2.22145  1.17379  0.00763  1.38382  0.620522  0.047072  0.000000    13.182
   2.25784  1.20984  0.01261  1.37837  0.616342  0.049897  0.000000    12.352
   2.30052  1.25198  0.01934  1.37187  0.609990  0.053282  0.000000    11.448
   2.35057  1.30122  0.02828  1.36410  0.600622  0.057352  0.000000    10.473
   2.40926  1.35873  0.03998  1.35475  0.587048  0.062268  0.000000     9.428
   2.47809  1.42587  0.05512  1.34337  0.567553  0.068248  0.000000     8.316
   2.55880  1.50422  0.07452  1.32932  0.539553  0.075597  0.000000     7.137
   2.65345  1.59561  0.09915  1.31148  0.498907  0.084808  0.000000     5.883
   2.76445  1.70218  0.13018  1.28732  0.438055  0.096957  0.000000     4.518
   2.89461  1.82641  0.16902  1.24902  0.343736  0.115345  0.000000     2.980
   3.04725  1.97122  0.21731  1.50572  0.063676  0.053782  0.000000     1.184
