#    s        x        y     Ue/Vinf    Dstar     Theta      Cf       H
   0.00000  1.00000  0.00126  1.39753  0.601930  0.033280 -0.000120    18.087
   0.00630  0.99392  0.00292  1.39796  0.599038  0.033076 -0.000121    18.111
   0.01727  0.98333  0.00577  1.39871  0.593988  0.032720 -0.000122    18.154
   0.03004  0.97098  0.00904  1.39959  0.587908  0.032308 -0.000124    18.197
   0.04430  0.95718  0.01262  1.40058  0.580962  0.031849 -0.000126    18.241
   0.05958  0.94237  0.01638  1.40166  0.573381  0.031358 -0.000128    18.285
   0.07546  0.92696  0.02021  1.40279  0.565373  0.030849 -0.000130    18.327
   0.09164  0.91123  0.02403  1.40396  0.557097  0.030330 -0.000132    18.368
   0.10799  0.89533  0.02780  1.40516  0.548640  0.029805 -0.000135    18.407
   0.12441  0.87933  0.03149  1.40639  0.540048  0.029279 -0.000137    18.445
   0.14087  0.86327  0.03511  1.40765  0.531353  0.028751 -0.000140    18.481
   0.15734  0.84718  0.03864  1.40892  0.522571  0.028221 -0.000142    18.517
   0.17383  0.83106  0.04208  1.41023  0.513710  0.027692 -0.000145    18.551
   0.19032  0.81492  0.04544  1.41156  0.504778  0.027161 -0.000148    18.585
   0.20680  0.79875  0.04870  1.41291  0.495779  0.026629 -0.000151    18.618
   0.22329  0.78258  0.05188  1.41430  0.486716  0.026097 -0.000155    18.650
   0.23978  0.76638  0.05496  1.41571  0.477590  0.025564 -0.000158    18.682
   0.25626  0.75017  0.05796  1.41716  0.468408  0.025029 -0.000161    18.714
   0.27274  0.73395  0.06086  1.41864  0.459170  0.024494 -0.000165    18.746
   0.28921  0.71772  0.06368  1.42016  0.449878  0.023957 -0.000169    18.779
   0.30568  0.70148  0.06640  1.42171  0.440535  0.023419 -0.000173    18.811
   0.32214  0.68523  0.06902  1.42331  0.431140  0.022880 -0.000177    18.844
   0.33859  0.66898  0.07155  1.42494  0.421696  0.022339 -0.000182    18.878
   0.35503  0.65272  0.07398  1.42662  0.412205  0.021796 -0.000187    18.912
   0.37146  0.63645  0.07632  1.42835  0.402669  0.021251 -0.000192    18.948
   0.38788  0.62019  0.07855  1.43013  0.393086  0.020705 -0.000197    18.985
   0.40429  0.60392  0.08069  1.43196  0.383461  0.020156 -0.000202    19.025
   0.42068  0.58766  0.08272  1.43385  0.373792  0.019605 -0.000208    19.066
   0.43705  0.57140  0.08465  1.43580  0.364085  0.019051 -0.000215    19.111
   0.45341  0.55514  0.08647  1.43782  0.354333  0.018495 -0.000221    19.158
   0.46975  0.53889  0.08818  1.43991  0.344546  0.017936 -0.000229    19.210
   0.48606  0.52265  0.08978  1.44208  0.334722  0.017373 -0.000236    19.267
   0.50236  0.50642  0.09127  1.44433  0.324855  0.016806 -0.000245    19.329
   0.51863  0.49021  0.09264  1.44667  0.314956  0.016236 -0.000254    19.399
   0.53487  0.47402  0.09390  1.44911  0.305023  0.015661 -0.000263    19.477
   0.55108  0.45785  0.09503  1.45165  0.295057  0.015081 -0.000274    19.564
   0.56725  0.44172  0.09603  1.45432  0.285060  0.014497 -0.000285    19.664
   0.58335  0.42564  0.09690  1.45711  0.275048  0.013907 -0.000298    19.778
   0.59935  0.40965  0.09765  1.46007  0.265030  0.013305 -0.000312    19.920
   0.61519  0.39382  0.09824  1.46318  0.255023  0.012697 -0.000328    20.086
   0.63085  0.37817  0.09865  1.46645  0.245124  0.012085 -0.000345    20.284
   0.64639  0.36263  0.09885  1.46991  0.235294  0.011465 -0.000364    20.523
   0.66187  0.34716  0.09884  1.47359  0.225525  0.010834 -0.000386    20.817
   0.67728  0.33174  0.09863  1.47754  0.215812  0.010189 -0.000411    21.182
   0.69264  0.31639  0.09821  1.48179  0.206152  0.009527 -0.000441    21.638
   0.70795  0.30109  0.09757  1.48640  0.196542  0.008846 -0.000476    22.218
   0.72321  0.28586  0.09672  1.49144  0.186991  0.008141 -0.000489    22.970
   0.73841  0.27069  0.09564  1.49701  0.177488  0.007405 -0.000493    23.967
   0.75355  0.25561  0.09433  1.50323  0.168038  0.006632 -0.000497    25.337
   0.76863  0.24061  0.09280  1.51024  0.158639  0.005816 -0.000502    27.278
   0.78363  0.22571  0.09103  1.51841  0.149273  0.004926 -0.000507    30.300
   0.79855  0.21092  0.08902  1.52839  0.139901  0.003919 -0.000514    35.702
   0.81339  0.19626  0.08678  1.54192  0.130402  0.002650 -0.000523    49.209
   0.82811  0.18175  0.08429  1.56001  0.120744  0.001093 -0.003946   110.491
   0.84271  0.16741  0.08155  1.56061  0.112443  0.001059 -0.004073   106.146
   0.85717  0.15327  0.07856  1.56126  0.104135  0.001026 -0.004208   101.496
   0.87144  0.13937  0.07533  1.56196  0.095870  0.000993 -0.004352    96.570
   0.88548  0.12576  0.07185  1.56272  0.087672  0.000960 -0.004505    91.337
   0.89921  0.11254  0.06815  1.56355  0.079594  0.000928 -0.004666    85.806
   0.91255  0.09978  0.06426  1.56444  0.071696  0.000896 -0.004834    79.978
   0.92536  0.08762  0.06020  1.56539  0.064052  0.000867 -0.005004    73.878
   0.93750  0.07622  0.05606  1.56639  0.056766  0.000840 -0.005173    67.590
   0.94879  0.06572  0.05190  1.56742  0.049934  0.000816 -0.005334    61.210
   0.95911  0.05625  0.04782  1.56846  0.043649  0.000795 -0.005483    54.894
   0.96837  0.04786  0.04389  1.56948  0.037972  0.000778 -0.005615    48.803
   0.97657  0.04055  0.04017  1.57047  0.032918  0.000764 -0.005730    43.077
   0.98379  0.03423  0.03668  1.57143  0.028456  0.000753 -0.005831    37.790
   0.99012  0.02879  0.03343  1.57236  0.024534  0.000744 -0.005922    32.980
   0.99570  0.02411  0.03040  1.57330  0.021088  0.000736 -0.006008    28.649
   1.00063  0.02008  0.02756  1.57428  0.018051  0.000729 -0.006095    24.761
   1.00502  0.01660  0.02489  1.57537  0.015371  0.000722 -0.006190    21.292
   1.00896  0.01357  0.02236  1.57665  0.013002  0.000714 -0.006303    18.204
   1.01253  0.01095  0.01995  1.57824  0.010893  0.000705 -0.006446    15.445
   1.01577  0.00867  0.01764  1.58038  0.009031  0.000694 -0.006639    13.010
   1.01874  0.00671  0.01541  1.58338  0.007376  0.000680 -0.006910    10.847
   1.02149  0.00502  0.01324  1.58782  0.005933  0.000662 -0.007316     8.968
   1.02404  0.00360  0.01113  1.59453  0.004680  0.000638 -0.007966     7.341
   1.02642  0.00242  0.00906  1.60491  0.003615  0.000607 -0.009064     5.959
   1.02866  0.00148  0.00703  1.62110  0.002732  0.000567 -0.009435     4.817
   1.03077  0.00077  0.00504  1.64498  0.002042  0.000519 -0.002090     3.932
   1.03277  0.00029  0.00309  1.67718  0.001515  0.000463  0.021386     3.273
   1.03468  0.00004  0.00120  1.71327  0.001156  0.000403  0.058275     2.864
   1.03651  0.00001 -0.00064  1.74055  0.000911  0.000351  0.105035     2.599
   1.03838  0.00020 -0.00249  1.74335  0.000751  0.000309  0.152754     2.433
   1.04030  0.00065 -0.00436  1.70734  0.000648  0.000280  0.193956     2.319
   1.04230  0.00137 -0.00623  1.62437  0.000596  0.000264  0.213215     2.255
   1.04439  0.00239 -0.00805  1.50332  0.000576  0.000260  0.210741     2.219
   1.04657  0.00369 -0.00980  1.35752  0.000578  0.000264  0.194314     2.192
   1.04888  0.00527 -0.01148  1.20133  0.000603  0.000275  0.164928     2.191
   1.05132  0.00712 -0.01307  1.04707  0.000630  0.000290  0.139600     2.173
   1.05393  0.00925 -0.01459  0.89685  0.000682  0.000313  0.109748     2.181
   1.05675  0.01167 -0.01603  0.75969  0.000733  0.000337  0.086740     2.178
   1.05979  0.01438 -0.01741  0.63325  0.000799  0.000365  0.065622     2.190
   1.06312  0.01744 -0.01873  0.51782  0.000860  0.000393  0.050075     2.185
   1.06679  0.02087 -0.02000  0.41046  0.000943  0.000429  0.035775     2.198
   1.07086  0.02476 -0.02123  0.31292  0.001021  0.000463  0.025096     2.203
   1.07542  0.02916 -0.02242  0.22162  0.001107  0.000500  0.016242     2.214
   1.08058  0.03419 -0.02357  0.13530  0.001213  0.000550  0.009111     2.206
   1.08647  0.03998 -0.02467  0.05721  0.001378  0.000618  0.003320     2.230
   1.09325  0.04667 -0.02572 -0.01799  0.001378  0.000618  0.001044     2.230
   1.10108  0.05445 -0.02670 -0.08981  0.001597  0.000711  0.004433     2.246
   1.11013  0.06345 -0.02758 -0.15480  0.001744  0.000778  0.007019     2.242
   1.12048  0.07377 -0.02833 -0.21652  0.001894  0.000840  0.008929     2.255
   1.13215  0.08543 -0.02891 -0.27312  0.002068  0.000913  0.010232     2.264
   1.14504  0.09832 -0.02929 -0.32394  0.002256  0.000992  0.011033     2.274
   1.15896  0.11223 -0.02947 -0.36925  0.002441  0.001071  0.011562     2.279
   1.17368  0.12696 -0.02945 -0.40944  0.002627  0.001149  0.011837     2.286
   1.18901  0.14228 -0.02924 -0.44432  0.002825  0.001230  0.011831     2.296
   1.20480  0.15806 -0.02887 -0.47549  0.002996  0.001305  0.011942     2.296
   1.22092  0.17418 -0.02837 -0.50292  0.003183  0.001381  0.011781     2.306
   1.23731  0.19056 -0.02776 -0.52779  0.003343  0.001450  0.011781     2.305
   1.25391  0.20714 -0.02707 -0.55014  0.003511  0.001519  0.011624     2.311
   1.27067  0.22389 -0.02630 -0.57044  0.003669  0.001586  0.011507     2.314
   1.28758  0.24078 -0.02549 -0.58914  0.003817  0.001649  0.011403     2.315
   1.30460  0.25777 -0.02465 -0.60647  0.003959  0.001709  0.011303     2.317
   1.32169  0.27484 -0.02379 -0.62262  0.004095  0.001767  0.011207     2.318
   1.33881  0.29194 -0.02292 -0.63798  0.004213  0.001819  0.011184     2.316
   1.35590  0.30901 -0.02207 -0.65240  0.004332  0.001870  0.011115     2.317
   1.37294  0.32603 -0.02124 -0.66625  0.004435  0.001916  0.011112     2.314
   1.38994  0.34301 -0.02043 -0.67972  0.004524  0.001958  0.011157     2.310
   1.40689  0.35994 -0.01967 -0.69299  0.004599  0.001995  0.011242     2.305
   1.42382  0.37686 -0.01894 -0.70605  0.004667  0.002029  0.011335     2.301
   1.44075  0.39378 -0.01827 -0.71953  0.004703  0.002054  0.011575     2.290
   1.45775  0.41076 -0.01762 -0.73344  0.004726  0.002073  0.011860     2.279
   1.47481  0.42781 -0.01697 -0.74685  0.004781  0.002097  0.011932     2.280
   1.49192  0.44491 -0.01629 -0.75988  0.004839  0.002121  0.011980     2.281
   1.50907  0.46204 -0.01560 -0.77228  0.004910  0.002148  0.011947     2.286
   1.52625  0.47921 -0.01490 -0.78430  0.004975  0.002174  0.011945     2.289
   1.54344  0.49639 -0.01420 -0.79595  0.005040  0.002200  0.011944     2.291
   1.56064  0.51357 -0.01350 -0.80737  0.005097  0.002225  0.011979     2.291
   1.57783  0.53074 -0.01280 -0.81857  0.005151  0.002249  0.012020     2.291
   1.59499  0.54790 -0.01211 -0.82967  0.005197  0.002271  0.012094     2.289
   1.61214  0.56503 -0.01143 -0.84068  0.005238  0.002291  0.012183     2.287
   1.62928  0.58215 -0.01076 -0.85170  0.005272  0.002309  0.012299     2.283
   1.64639  0.59926 -0.01011 -0.86275  0.005301  0.002325  0.012435     2.280
   1.66350  0.61635 -0.00947 -0.87380  0.005327  0.002340  0.012572     2.276
   1.68058  0.63342 -0.00885 -0.88508  0.005340  0.002351  0.012766     2.271
   1.69766  0.65049 -0.00825 -0.89651  0.005349  0.002361  0.012971     2.266
   1.71473  0.66755 -0.00768 -0.90807  0.005356  0.002369  0.013180     2.261
   1.73178  0.68459 -0.00712 -0.91994  0.005351  0.002373  0.013440     2.255
   1.74883  0.70164 -0.00659 -0.93208  0.005343  0.002376  0.013716     2.249
   1.76588  0.71867 -0.00608 -0.94457  0.005327  0.002376  0.014024     2.242
   1.78292  0.73570 -0.00560 -0.95744  0.005305  0.002374  0.014363     2.235
   1.79995  0.75273 -0.00514 -0.97084  0.005273  0.002368  0.014760     2.227
   1.81698  0.76976 -0.00471 -0.98474  0.005235  0.002359  0.015184     2.219
   1.83401  0.78678 -0.00431 -0.99923  0.005190  0.002348  0.015654     2.211
   1.85104  0.80381 -0.00393 -1.01443  0.005137  0.002333  0.016187     2.202
   1.86807  0.82084 -0.00357 -1.03053  0.005071  0.002313  0.016808     2.192
   1.88510  0.83786 -0.00324 -1.04751  0.004999  0.002291  0.017479     2.182
   1.90213  0.85489 -0.00294 -1.06570  0.004913  0.002264  0.018277     2.170
   1.91914  0.87190 -0.00266 -1.08524  0.004816  0.002232  0.019193     2.158
   1.93613  0.88889 -0.00241 -1.10641  0.004704  0.002194  0.020267     2.144
   1.95305  0.90581 -0.00218 -1.12961  0.004574  0.002149  0.021558     2.129
   1.96983  0.92258 -0.00197 -1.15529  0.004424  0.002096  0.023140     2.111
   1.98627  0.93902 -0.00179 -1.18382  0.004253  0.002034  0.025078     2.091
   2.00209  0.95483 -0.00163 -1.21602  0.004049  0.001960  0.027621     2.066
   2.01678  0.96953 -0.00150 -1.25201  0.003817  0.001875  0.030890     2.036
   2.02984  0.98258 -0.00139 -1.29330  0.003534  0.001771  0.035578     1.996
   2.04093  0.99368 -0.00131 -1.34011  0.003222  0.001653  0.041922     1.949
   2.04725  1.00000 -0.00126 -1.39753  0.002723  0.001480  0.055934     1.840
   2.04725  1.00010 -0.00001  1.39753  0.607128  0.034760  0.000000    17.467
   2.05356  1.00637 -0.00075  1.39671  0.608049  0.035159  0.000000    17.294
   2.06096  1.01374 -0.00130  1.39566  0.608821  0.035668  0.000000    17.069
   2.06964  1.02241 -0.00174  1.39443  0.609593  0.036269  0.000000    16.808
   2.07981  1.03258 -0.00204  1.39298  0.610320  0.036980  0.000000    16.504
   2.09174  1.04451 -0.00214  1.39127  0.610958  0.037820  0.000000    16.154
   2.10574  1.05850 -0.00198  1.38926  0.611444  0.038815  0.000000    15.753
   2.12215  1.07490 -0.00147  1.38689  0.611686  0.039995  0.000000    15.294
   2.14139  1.09412 -0.00050  1.38409  0.611559  0.041395  0.000000    14.774
   2.16396  1.11663  0.00109  1.38079  0.610893  0.043059  0.000000    14.187
   2.19042  1.14299  0.00348  1.37688  0.609453  0.045039  0.000000    13.532
   2.22145  1.17383  0.00690  1.37225  0.606923  0.047401  0.000000    12.804
   2.25784  1.20991  0.01166  1.36675  0.602868  0.050223  0.000000    12.004
   2.30052  1.25210  0.01810  1.36020  0.596695  0.053606  0.000000    11.131
   2.35057  1.30141  0.02668  1.35236  0.587580  0.057674  0.000000    10.188
   2.40926  1.35901  0.03794  1.34293  0.574367  0.062589  0.000000     9.177
   2.47809  1.42627  0.05254  1.33145  0.555386  0.068570  0.000000     8.100
   2.55880  1.50478  0.07126  1.31729  0.528128  0.075926  0.000000     6.956
   2.65345  1.59638  0.09508  1.29930  0.488587  0.085158  0.000000     5.737
   2.76445  1.70324  0.12512  1.27488  0.429476  0.097390  0.000000     4.410
   2.89461  1.82784  0.16275  1.23716  0.337855  0.115465  0.000000     2.926
   3.04725  1.97312  0.20959  1.48441  0.066250  0.055059  0.000000     1.203
