#    s        x        y     Ue/Vinf    Dstar     Theta      Cf       H
   0.00000  1.00000  0.00126  1.09163  0.090310  0.004226 -0.000262    21.372
   0.00630  0.99392  0.00292  1.09168  0.089333  0.004223 -0.000733    21.152
   0.01727  0.98333  0.00577  1.09175  0.087545  0.004220 -0.000735    20.744
   0.03004  0.97098  0.00904  1.09183  0.085399  0.004218 -0.000736    20.249
   0.04430  0.95718  0.01262  1.09191  0.082964  0.004215 -0.000737    19.685
   0.05958  0.94237  0.01638  1.09201  0.080328  0.004212 -0.000739    19.072
   0.07546  0.92696  0.02021  1.09211  0.077573  0.004209 -0.000741    18.431
   0.09164  0.91123  0.02403  1.09221  0.074757  0.004205 -0.000742    17.777
   0.10799  0.89533  0.02780  1.09233  0.071920  0.004202 -0.000745    17.117
   0.12441  0.87933  0.03149  1.09246  0.069078  0.004197 -0.000747    16.458
   0.14087  0.86327  0.03511  1.09261  0.066249  0.004192 -0.000750    15.803
   0.15734  0.84718  0.03864  1.09278  0.063440  0.004186 -0.000753    15.155
   0.17383  0.83106  0.04208  1.09297  0.060657  0.004179 -0.000756    14.514
   0.19032  0.81492  0.04544  1.09318  0.057906  0.004171 -0.000760    13.883
   0.20680  0.79875  0.04870  1.09343  0.055192  0.004162 -0.000765    13.262
   0.22329  0.78258  0.05188  1.09372  0.052517  0.004151 -0.000770    12.653
   0.23978  0.76638  0.05496  1.09405  0.049885  0.004138 -0.000776    12.056
   0.25626  0.75017  0.05796  1.09443  0.047300  0.004123 -0.000783    11.471
   0.27274  0.73395  0.06086  1.09488  0.044767  0.004107 -0.000791    10.901
   0.28921  0.71772  0.06368  1.09540  0.042288  0.004088 -0.000800    10.345
   0.30568  0.70148  0.06640  1.09600  0.039868  0.004066 -0.000810     9.805
   0.32214  0.68523  0.06902  1.09670  0.037507  0.004042 -0.000822     9.280
   0.33859  0.66898  0.07155  1.09752  0.035212  0.004014 -0.000837     8.772
   0.35503  0.65272  0.07398  1.09848  0.032985  0.003983 -0.000853     8.281
   0.37146  0.63645  0.07632  1.09959  0.030829  0.003949 -0.000873     7.807
   0.38788  0.62019  0.07855  1.10089  0.028749  0.003910 -0.000896     7.352
   0.40429  0.60392  0.08069  1.10241  0.026748  0.003867 -0.000924     6.916
   0.42068  0.58766  0.08272  1.10419  0.024828  0.003820 -0.000958     6.500
   0.43705  0.57140  0.08465  1.10627  0.022996  0.003767 -0.000997     6.104
   0.45341  0.55514  0.08647  1.10870  0.021250  0.003709 -0.001038     5.729
   0.46975  0.53889  0.08818  1.11153  0.019598  0.003645 -0.001067     5.377
   0.48606  0.52265  0.08978  1.11483  0.018039  0.003575 -0.001074     5.046
   0.50236  0.50642  0.09127  1.11865  0.016577  0.003499 -0.001030     4.738
   0.51863  0.49021  0.09264  1.12303  0.015211  0.003416 -0.000900     4.453
   0.53487  0.47402  0.09390  1.12797  0.013942  0.003327 -0.000653     4.190
   0.55108  0.45785  0.09503  1.13344  0.012764  0.003234 -0.000262     3.947
   0.56725  0.44172  0.09603  1.13952  0.011679  0.003135  0.000289     3.726
   0.58335  0.42564  0.09690  1.14625  0.010678  0.003028  0.001014     3.526
   0.59935  0.40965  0.09765  1.15359  0.009759  0.002917  0.001922     3.346
   0.61519  0.39382  0.09824  1.16142  0.008905  0.002800  0.003053     3.180
   0.63085  0.37817  0.09865  1.16935  0.008170  0.002684  0.004278     3.044
   0.64639  0.36263  0.09885  1.17705  0.007540  0.002570  0.005550     2.934
   0.66187  0.34716  0.09884  1.18429  0.006998  0.002461  0.006843     2.844
   0.67728  0.33174  0.09863  1.19086  0.006527  0.002356  0.008137     2.771
   0.69264  0.31639  0.09821  1.19658  0.006116  0.002256  0.009418     2.711
   0.70795  0.30109  0.09757  1.20136  0.005752  0.002161  0.010682     2.661
   0.72321  0.28586  0.09672  1.20508  0.005428  0.002072  0.011916     2.620
   0.73841  0.27069  0.09564  1.20773  0.005133  0.001986  0.013143     2.585
   0.75355  0.25561  0.09433  1.20920  0.004866  0.001904  0.014337     2.556
   0.76863  0.24061  0.09280  1.20952  0.004618  0.001824  0.015540     2.531
   0.78363  0.22571  0.09103  1.20858  0.004387  0.001748  0.016728     2.510
   0.79855  0.21092  0.08902  1.20632  0.004170  0.001674  0.017906     2.492
   0.81339  0.19626  0.08678  1.20274  0.003963  0.001601  0.019120     2.475
   0.82811  0.18175  0.08429  1.19769  0.003765  0.001530  0.020335     2.461
   0.84271  0.16741  0.08155  1.19111  0.003572  0.001459  0.021602     2.448
   0.85717  0.15327  0.07856  1.18281  0.003386  0.001389  0.022878     2.438
   0.87144  0.13937  0.07533  1.17274  0.003202  0.001319  0.024251     2.427
   0.88548  0.12576  0.07185  1.16061  0.003022  0.001250  0.025675     2.418
   0.89921  0.11254  0.06815  1.14626  0.002844  0.001180  0.027162     2.410
   0.91255  0.09978  0.06426  1.12953  0.002665  0.001110  0.028814     2.401
   0.92536  0.08762  0.06020  1.11008  0.002491  0.001041  0.030524     2.393
   0.93750  0.07622  0.05606  1.08788  0.002319  0.000972  0.032364     2.386
   0.94879  0.06572  0.05190  1.06289  0.002152  0.000905  0.034336     2.378
   0.95911  0.05625  0.04782  1.03514  0.001992  0.000840  0.036385     2.371
   0.96837  0.04786  0.04389  1.00476  0.001839  0.000779  0.038594     2.362
   0.97657  0.04055  0.04017  0.97173  0.001699  0.000721  0.040680     2.355
   0.98379  0.03423  0.03668  0.93634  0.001567  0.000668  0.042879     2.346
   0.99012  0.02879  0.03343  0.89827  0.001446  0.000619  0.044888     2.338
   0.99570  0.02411  0.03040  0.85743  0.001334  0.000573  0.046880     2.329
   1.00063  0.02008  0.02756  0.81315  0.001230  0.000530  0.048606     2.320
   1.00502  0.01660  0.02489  0.76486  0.001134  0.000491  0.050102     2.310
   1.00896  0.01357  0.02236  0.71184  0.001047  0.000455  0.050857     2.303
   1.01253  0.01095  0.01995  0.65326  0.000962  0.000420  0.051403     2.290
   1.01577  0.00867  0.01764  0.58751  0.000888  0.000389  0.050475     2.281
   1.01874  0.00671  0.01541  0.51435  0.000817  0.000359  0.048365     2.274
   1.02149  0.00502  0.01324  0.43100  0.000748  0.000331  0.044903     2.258
   1.02404  0.00360  0.01113  0.33588  0.000695  0.000309  0.037942     2.250
   1.02642  0.00242  0.00906  0.23033  0.000638  0.000284  0.028308     2.251
   1.02866  0.00148  0.00703  0.10820  0.000582  0.000261  0.014860     2.230
   1.03077  0.00077  0.00504 -0.02312  0.000582  0.000261  0.003176     2.230
   1.03277  0.00029  0.00309 -0.16624  0.000523  0.000235  0.025603     2.223
   1.03468  0.00004  0.00120 -0.32139  0.000505  0.000227  0.050954     2.227
   1.03651  0.00001 -0.00064 -0.47539  0.000500  0.000224  0.076218     2.227
   1.03838  0.00020 -0.00249 -0.63482  0.000496  0.000223  0.102484     2.227
   1.04030  0.00065 -0.00436 -0.79476  0.000504  0.000225  0.125014     2.238
   1.04230  0.00137 -0.00623 -0.93969  0.000534  0.000236  0.136661     2.263
   1.04439  0.00239 -0.00805 -1.06340  0.000574  0.000252  0.141449     2.280
   1.04657  0.00369 -0.00980 -1.16005  0.000638  0.000275  0.134192     2.317
   1.04888  0.00527 -0.01148 -1.23008  0.000718  0.000305  0.122496     2.350
   1.05132  0.00712 -0.01307 -1.27851  0.000813  0.000341  0.108434     2.387
   1.05393  0.00925 -0.01459 -1.31004  0.000923  0.000381  0.094071     2.425
   1.05675  0.01167 -0.01603 -1.32917  0.001048  0.000425  0.080876     2.464
   1.05979  0.01438 -0.01741 -1.33922  0.001187  0.000474  0.069026     2.503
   1.06312  0.01744 -0.01873 -1.34257  0.001341  0.000527  0.058611     2.543
   1.06679  0.02087 -0.02000 -1.34103  0.001512  0.000585  0.049655     2.583
   1.07086  0.02476 -0.02123 -1.33591  0.001700  0.000648  0.042024     2.623
   1.07542  0.02916 -0.02242 -1.32793  0.001910  0.000717  0.035380     2.665
   1.08058  0.03419 -0.02357 -1.31782  0.002142  0.000792  0.029770     2.706
   1.08647  0.03998 -0.02467 -1.30594  0.002402  0.000874  0.024932     2.749
   1.09325  0.04667 -0.02572 -1.29256  0.002695  0.000965  0.020759     2.794
   1.10108  0.05445 -0.02670 -1.27791  0.003026  0.001065  0.017153     2.841
   1.11013  0.06345 -0.02758 -1.26232  0.003397  0.001176  0.014101     2.889
   1.12048  0.07377 -0.02833 -1.24614  0.003810  0.001296  0.011530     2.939
   1.13215  0.08543 -0.02891 -1.22981  0.004260  0.001425  0.009412     2.990
   1.14504  0.09832 -0.02929 -1.21377  0.004744  0.001560  0.007676     3.042
   1.15896  0.11223 -0.02947 -1.19842  0.005249  0.001698  0.006291     3.091
   1.17368  0.12696 -0.02945 -1.18401  0.005767  0.001837  0.005188     3.140
   1.18901  0.14228 -0.02924 -1.17064  0.006290  0.001975  0.004315     3.185
   1.20480  0.15806 -0.02887 -1.15834  0.006806  0.002110  0.003637     3.225
   1.22092  0.17418 -0.02837 -1.14704  0.007317  0.002242  0.003093     3.263
   1.23731  0.19056 -0.02776 -1.13668  0.007810  0.002371  0.002679     3.294
   1.25391  0.20714 -0.02707 -1.12716  0.008285  0.002496  0.002361     3.319
   1.27067  0.22389 -0.02630 -1.11839  0.008739  0.002617  0.002115     3.339
   1.28758  0.24078 -0.02549 -1.11032  0.009166  0.002735  0.001941     3.352
   1.30460  0.25777 -0.02465 -1.10287  0.009563  0.002848  0.001821     3.358
   1.32169  0.27484 -0.02379 -1.09599  0.009928  0.002958  0.001750     3.356
   1.33881  0.29194 -0.02292 -1.08966  0.010253  0.003064  0.001725     3.347
   1.35590  0.30901 -0.02207 -1.08384  0.010541  0.003165  0.001738     3.330
   1.37294  0.32603 -0.02124 -1.07851  0.010787  0.003263  0.001789     3.306
   1.38994  0.34301 -0.02043 -1.07366  0.010986  0.003355  0.001879     3.275
   1.40689  0.35994 -0.01967 -1.06926  0.011141  0.003443  0.002005     3.236
   1.42382  0.37686 -0.01894 -1.06531  0.011250  0.003525  0.002168     3.191
   1.44075  0.39378 -0.01827 -1.06185  0.011306  0.003602  0.002378     3.139
   1.45775  0.41076 -0.01762 -1.05887  0.011315  0.003673  0.002629     3.080
   1.47481  0.42781 -0.01697 -1.05614  0.011354  0.003743  0.002827     3.034
   1.49192  0.44491 -0.01629 -1.05365  0.011408  0.003810  0.002990     2.995
   1.50907  0.46204 -0.01560 -1.05135  0.011478  0.003875  0.003121     2.962
   1.52625  0.47921 -0.01490 -1.04922  0.011556  0.003939  0.003228     2.934
   1.54344  0.49639 -0.01420 -1.04726  0.011640  0.004001  0.003316     2.909
   1.56064  0.51357 -0.01350 -1.04543  0.011732  0.004062  0.003387     2.888
   1.57783  0.53074 -0.01280 -1.04374  0.011822  0.004121  0.003450     2.869
   1.59499  0.54790 -0.01211 -1.04220  0.011910  0.004179  0.003507     2.850
   1.61214  0.56503 -0.01143 -1.04078  0.011997  0.004234  0.003559     2.833
   1.62928  0.58215 -0.01076 -1.03949  0.012079  0.004288  0.003611     2.817
   1.64639  0.59926 -0.01011 -1.03834  0.012154  0.004340  0.003664     2.801
   1.66350  0.61635 -0.00947 -1.03732  0.012223  0.004390  0.003719     2.784
   1.68058  0.63342 -0.00885 -1.03645  0.012281  0.004437  0.003780     2.768
   1.69766  0.65049 -0.00825 -1.03571  0.012329  0.004483  0.003846     2.750
   1.71473  0.66755 -0.00768 -1.03513  0.012367  0.004526  0.003920     2.733
   1.73178  0.68459 -0.00712 -1.03470  0.012394  0.004566  0.004001     2.714
   1.74883  0.70164 -0.00659 -1.03443  0.012408  0.004604  0.004091     2.695
   1.76588  0.71867 -0.00608 -1.03435  0.012408  0.004639  0.004192     2.675
   1.78292  0.73570 -0.00560 -1.03444  0.012396  0.004671  0.004303     2.654
   1.79995  0.75273 -0.00514 -1.03473  0.012369  0.004699  0.004427     2.632
   1.81698  0.76976 -0.00471 -1.03523  0.012328  0.004724  0.004562     2.610
   1.83401  0.78678 -0.00431 -1.03597  0.012272  0.004746  0.004713     2.586
   1.85104  0.80381 -0.00393 -1.03695  0.012198  0.004763  0.004880     2.561
   1.86807  0.82084 -0.00357 -1.03821  0.012107  0.004776  0.005066     2.535
   1.88510  0.83786 -0.00324 -1.03977  0.011999  0.004784  0.005271     2.508
   1.90213  0.85489 -0.00294 -1.04170  0.011868  0.004787  0.005506     2.479
   1.91914  0.87190 -0.00266 -1.04400  0.011718  0.004784  0.005764     2.449
   1.93613  0.88889 -0.00241 -1.04676  0.011543  0.004774  0.006060     2.418
   1.95305  0.90581 -0.00218 -1.05004  0.011341  0.004756  0.006398     2.384
   1.96983  0.92258 -0.00197 -1.05395  0.011108  0.004729  0.006790     2.349
   1.98627  0.93902 -0.00179 -1.05857  0.010841  0.004692  0.007246     2.311
   2.00209  0.95483 -0.00163 -1.06398  0.010540  0.004642  0.007778     2.270
   2.01678  0.96953 -0.00150 -1.07015  0.010209  0.004581  0.008392     2.228
   2.02984  0.98258 -0.00139 -1.07704  0.009850  0.004508  0.009098     2.185
   2.04093  0.99368 -0.00131 -1.08429  0.009489  0.004428  0.009859     2.143
   2.04725  1.00000 -0.00126 -1.09163  0.009081  0.004334  0.010792     2.095
   2.04725  1.00010 -0.00001  1.09163  0.101867  0.008560  0.000000    11.901
   2.05356  1.00636 -0.00082  1.08897  0.101325  0.008851  0.000000    11.448
   2.06096  1.01371 -0.00165  1.08541  0.100454  0.009240  0.000000    10.871
   2.06964  1.02234 -0.00256  1.08109  0.099331  0.009714  0.000000    10.225
   2.07981  1.03246 -0.00357  1.07589  0.097898  0.010287  0.000000     9.517
   2.09174  1.04434 -0.00470  1.06961  0.096088  0.010980  0.000000     8.751
   2.10574  1.05828 -0.00594  1.06198  0.093814  0.011823  0.000000     7.935
   2.12215  1.07463 -0.00732  1.05267  0.090971  0.012856  0.000000     7.076
   2.14139  1.09381 -0.00885  1.04117  0.087433  0.014134  0.000000     6.186
   2.16396  1.11632 -0.01053  1.02672  0.083068  0.015746  0.000000     5.275
   2.19042  1.14271 -0.01238  1.00786  0.077776  0.017867  0.000000     4.353
   2.22145  1.17368 -0.01439  0.98727  0.071364  0.020199  0.000000     3.533
   2.25784  1.21001 -0.01659  0.96840  0.063872  0.022330  0.000000     2.860
   2.30052  1.25262 -0.01896  0.95349  0.055696  0.023979  0.000000     2.323
   2.35057  1.30260 -0.02152  0.94557  0.047540  0.024817  0.000000     1.916
   2.40926  1.36123 -0.02425  0.94562  0.040267  0.024812  0.000000     1.623
   2.47809  1.42999 -0.02714  0.95166  0.034467  0.024262  0.000000     1.421
   2.55880  1.51065 -0.03018  0.96026  0.030219  0.023541  0.000000     1.284
   2.65345  1.60525 -0.03336  0.96876  0.027248  0.022879  0.000000     1.191
   2.76445  1.71619 -0.03662  0.97602  0.025209  0.022345  0.000000     1.128
   2.89461  1.84632 -0.03995  0.98182  0.023818  0.021937  0.000000     1.086
   3.04725  1.99892 -0.04329  0.98879  0.022691  0.021467  0.000000     1.057
