#    s        x        y     Ue/Vinf    Dstar     Theta      Cf       H
   0.00000  1.00000  0.00126  1.16779  0.170714  0.003230 -0.000300    52.856
   0.00630  0.99392  0.00292  1.16783  0.169365  0.003227 -0.001006    52.486
   0.01727  0.98333  0.00577  1.16788  0.166944  0.003223 -0.001008    51.803
   0.03004  0.97098  0.00904  1.16794  0.164025  0.003219 -0.001009    50.954
   0.04430  0.95718  0.01262  1.16800  0.160695  0.003216 -0.001011    49.966
   0.05958  0.94237  0.01638  1.16805  0.157066  0.003214 -0.001012    48.872
   0.07546  0.92696  0.02021  1.16810  0.153243  0.003212 -0.001012    47.705
   0.09164  0.91123  0.02403  1.16816  0.149305  0.003212 -0.001013    46.490
   0.10799  0.89533  0.02780  1.16820  0.145297  0.003211 -0.001014    45.243
   0.12441  0.87933  0.03149  1.16825  0.141245  0.003212 -0.001014    43.974
   0.14087  0.86327  0.03511  1.16829  0.137168  0.003213 -0.001014    42.690
   0.15734  0.84718  0.03864  1.16832  0.133073  0.003215 -0.001014    41.395
   0.17383  0.83106  0.04208  1.16836  0.128969  0.003217 -0.001014    40.093
   0.19032  0.81492  0.04544  1.16839  0.124861  0.003219 -0.001014    38.787
   0.20680  0.79875  0.04870  1.16842  0.120755  0.003222 -0.001014    37.480
   0.22329  0.78258  0.05188  1.16845  0.116650  0.003225 -0.001013    36.172
   0.23978  0.76638  0.05496  1.16848  0.112553  0.003228 -0.001013    34.866
   0.25626  0.75017  0.05796  1.16850  0.108468  0.003232 -0.001013    33.564
   0.27274  0.73395  0.06086  1.16853  0.104397  0.003235 -0.001012    32.268
   0.28921  0.71772  0.06368  1.16856  0.100343  0.003239 -0.001012    30.980
   0.30568  0.70148  0.06640  1.16858  0.096308  0.003243 -0.001012    29.700
   0.32214  0.68523  0.06902  1.16861  0.092295  0.003246 -0.001012    28.430
   0.33859  0.66898  0.07155  1.16864  0.088310  0.003250 -0.001012    27.172
   0.35503  0.65272  0.07398  1.16867  0.084352  0.003253 -0.001012    25.927
   0.37146  0.63645  0.07632  1.16871  0.080425  0.003257 -0.001013    24.697
   0.38788  0.62019  0.07855  1.16876  0.076532  0.003259 -0.001014    23.481
   0.40429  0.60392  0.08069  1.16881  0.072678  0.003262 -0.001015    22.283
   0.42068  0.58766  0.08272  1.16888  0.068863  0.003263 -0.001016    21.102
   0.43705  0.57140  0.08465  1.16896  0.065094  0.003264 -0.001018    19.941
   0.45341  0.55514  0.08647  1.16906  0.061370  0.003264 -0.001021    18.800
   0.46975  0.53889  0.08818  1.16919  0.057699  0.003263 -0.001024    17.681
   0.48606  0.52265  0.08978  1.16934  0.054081  0.003261 -0.001029    16.584
   0.50236  0.50642  0.09127  1.16954  0.050522  0.003257 -0.001034    15.511
   0.51863  0.49021  0.09264  1.16980  0.047028  0.003251 -0.001041    14.464
   0.53487  0.47402  0.09390  1.17012  0.043601  0.003244 -0.001049    13.442
   0.55108  0.45785  0.09503  1.17052  0.040246  0.003233 -0.001060    12.449
   0.56725  0.44172  0.09603  1.17104  0.036971  0.003219 -0.001073    11.485
   0.58335  0.42564  0.09690  1.17171  0.033783  0.003202 -0.001090    10.551
   0.59935  0.40965  0.09765  1.17257  0.030695  0.003180 -0.001111     9.653
   0.61519  0.39382  0.09824  1.17366  0.027713  0.003153 -0.001139     8.789
   0.63085  0.37817  0.09865  1.17508  0.024915  0.003120 -0.001174     7.984
   0.64639  0.36263  0.09885  1.17693  0.022299  0.003080 -0.001222     7.239
   0.66187  0.34716  0.09884  1.17933  0.019869  0.003032 -0.001285     6.554
   0.67728  0.33174  0.09863  1.18243  0.017627  0.002974 -0.001365     5.926
   0.69264  0.31639  0.09821  1.18640  0.015580  0.002907 -0.001428     5.360
   0.70795  0.30109  0.09757  1.19143  0.013730  0.002828 -0.001404     4.855
   0.72321  0.28586  0.09672  1.19767  0.012085  0.002739 -0.001153     4.413
   0.73841  0.27069  0.09564  1.20506  0.010635  0.002640 -0.000544     4.028
   0.75355  0.25561  0.09433  1.21365  0.009383  0.002533  0.000469     3.704
   0.76863  0.24061  0.09280  1.22349  0.008311  0.002416  0.001854     3.440
   0.78363  0.22571  0.09103  1.23427  0.007408  0.002293  0.003519     3.231
   0.79855  0.21092  0.08902  1.24544  0.006652  0.002168  0.005371     3.068
   0.81339  0.19626  0.08678  1.25643  0.006017  0.002045  0.007335     2.942
   0.82811  0.18175  0.08429  1.26675  0.005483  0.001927  0.009337     2.844
   0.84271  0.16741  0.08155  1.27606  0.005025  0.001815  0.011357     2.769
   0.85717  0.15327  0.07856  1.28414  0.004628  0.001708  0.013370     2.710
   0.87144  0.13937  0.07533  1.29085  0.004277  0.001606  0.015385     2.664
   0.88548  0.12576  0.07185  1.29614  0.003960  0.001507  0.017426     2.627
   0.89921  0.11254  0.06815  1.29993  0.003670  0.001413  0.019504     2.598
   0.91255  0.09978  0.06426  1.30221  0.003400  0.001321  0.021648     2.575
   0.92536  0.08762  0.06020  1.30300  0.003146  0.001231  0.023926     2.555
   0.93750  0.07622  0.05606  1.30225  0.002906  0.001144  0.026362     2.539
   0.94879  0.06572  0.05190  1.29994  0.002679  0.001061  0.028983     2.525
   0.95911  0.05625  0.04782  1.29610  0.002466  0.000982  0.031830     2.512
   0.96837  0.04786  0.04389  1.29072  0.002268  0.000907  0.034925     2.500
   0.97657  0.04055  0.04017  1.28378  0.002085  0.000838  0.038228     2.489
   0.98379  0.03423  0.03668  1.27535  0.001916  0.000774  0.041877     2.477
   0.99012  0.02879  0.03343  1.26516  0.001761  0.000714  0.045751     2.465
   0.99570  0.02411  0.03040  1.25315  0.001617  0.000659  0.050018     2.452
   1.00063  0.02008  0.02756  1.23889  0.001484  0.000609  0.054590     2.439
   1.00502  0.01660  0.02489  1.22200  0.001360  0.000561  0.059784     2.423
   1.00896  0.01357  0.02236  1.20162  0.001249  0.000518  0.064672     2.412
   1.01253  0.01095  0.01995  1.17784  0.001140  0.000476  0.070809     2.393
   1.01577  0.00867  0.01764  1.14864  0.001043  0.000438  0.076594     2.378
   1.01874  0.00671  0.01541  1.11352  0.000950  0.000403  0.083014     2.359
   1.02149  0.00502  0.01324  1.07050  0.000867  0.000370  0.088867     2.343
   1.02404  0.00360  0.01113  1.01826  0.000790  0.000340  0.094499     2.324
   1.02642  0.00242  0.00906  0.95464  0.000722  0.000313  0.098385     2.308
   1.02866  0.00148  0.00703  0.87746  0.000659  0.000288  0.101235     2.286
   1.03077  0.00077  0.00504  0.78429  0.000610  0.000268  0.098977     2.272
   1.03277  0.00029  0.00309  0.67594  0.000568  0.000252  0.093133     2.254
   1.03468  0.00004  0.00120  0.55299  0.000539  0.000240  0.080902     2.245
   1.03651  0.00001 -0.00064  0.42079  0.000517  0.000230  0.064352     2.243
   1.03838  0.00020 -0.00249  0.27133  0.000500  0.000225  0.043584     2.225
   1.04030  0.00065 -0.00436  0.11127  0.000512  0.000230  0.017376     2.230
   1.04230  0.00137 -0.00623 -0.04935  0.000512  0.000230  0.007706     2.230
   1.04439  0.00239 -0.00805 -0.20664  0.000537  0.000240  0.030594     2.235
   1.04657  0.00369 -0.00980 -0.34677  0.000584  0.000259  0.046625     2.250
   1.04888  0.00527 -0.01148 -0.46518  0.000642  0.000284  0.056279     2.262
   1.05132  0.00712 -0.01307 -0.56427  0.000708  0.000311  0.061127     2.275
   1.05393  0.00925 -0.01459 -0.64488  0.000789  0.000344  0.061490     2.296
   1.05675  0.01167 -0.01603 -0.71143  0.000873  0.000378  0.060763     2.306
   1.05979  0.01438 -0.01741 -0.76535  0.000974  0.000418  0.057291     2.330
   1.06312  0.01744 -0.01873 -0.80925  0.001081  0.000461  0.053811     2.345
   1.06679  0.02087 -0.02000 -0.84575  0.001196  0.000507  0.050037     2.360
   1.07086  0.02476 -0.02123 -0.87585  0.001326  0.000557  0.045934     2.378
   1.07542  0.02916 -0.02242 -0.90084  0.001466  0.000612  0.042024     2.395
   1.08058  0.03419 -0.02357 -0.92164  0.001621  0.000672  0.038239     2.411
   1.08647  0.03998 -0.02467 -0.93901  0.001792  0.000738  0.034691     2.427
   1.09325  0.04667 -0.02572 -0.95331  0.001982  0.000811  0.031280     2.444
   1.10108  0.05445 -0.02670 -0.96484  0.002195  0.000892  0.028069     2.462
   1.11013  0.06345 -0.02758 -0.97385  0.002431  0.000980  0.025117     2.479
   1.12048  0.07377 -0.02833 -0.98063  0.002689  0.001077  0.022459     2.496
   1.13215  0.08543 -0.02891 -0.98531  0.002969  0.001181  0.020059     2.514
   1.14504  0.09832 -0.02929 -0.98821  0.003266  0.001291  0.017967     2.530
   1.15896  0.11223 -0.02947 -0.98970  0.003570  0.001403  0.016190     2.545
   1.17368  0.12696 -0.02945 -0.99007  0.003881  0.001516  0.014657     2.560
   1.18901  0.14228 -0.02924 -0.98963  0.004191  0.001629  0.013373     2.573
   1.20480  0.15806 -0.02887 -0.98872  0.004494  0.001739  0.012312     2.584
   1.22092  0.17418 -0.02837 -0.98739  0.004795  0.001848  0.011381     2.595
   1.23731  0.19056 -0.02776 -0.98591  0.005085  0.001954  0.010620     2.603
   1.25391  0.20714 -0.02707 -0.98436  0.005364  0.002056  0.009979     2.609
   1.27067  0.22389 -0.02630 -0.98279  0.005634  0.002156  0.009430     2.614
   1.28758  0.24078 -0.02549 -0.98131  0.005891  0.002252  0.008979     2.616
   1.30460  0.25777 -0.02465 -0.97997  0.006134  0.002344  0.008608     2.617
   1.32169  0.27484 -0.02379 -0.97879  0.006363  0.002433  0.008299     2.616
   1.33881  0.29194 -0.02292 -0.97790  0.006569  0.002516  0.008077     2.611
   1.35590  0.30901 -0.02207 -0.97722  0.006762  0.002596  0.007893     2.605
   1.37294  0.32603 -0.02124 -0.97688  0.006931  0.002670  0.007779     2.596
   1.38994  0.34301 -0.02043 -0.97688  0.007078  0.002739  0.007721     2.584
   1.40689  0.35994 -0.01967 -0.97727  0.007200  0.002802  0.007718     2.569
   1.42382  0.37686 -0.01894 -0.97814  0.007296  0.002860  0.007780     2.551
   1.44075  0.39378 -0.01827 -0.97959  0.007358  0.002910  0.007918     2.529
   1.45775  0.41076 -0.01762 -0.98171  0.007387  0.002952  0.008132     2.502
   1.47481  0.42781 -0.01697 -0.98375  0.007453  0.002996  0.008208     2.487
   1.49192  0.44491 -0.01629 -0.98573  0.007538  0.003042  0.008212     2.478
   1.50907  0.46204 -0.01560 -0.98760  0.007636  0.003088  0.008163     2.473
   1.52625  0.47921 -0.01490 -0.98941  0.007741  0.003134  0.008092     2.470
   1.54344  0.49639 -0.01420 -0.99115  0.007849  0.003179  0.008008     2.469
   1.56064  0.51357 -0.01350 -0.99282  0.007959  0.003225  0.007916     2.468
   1.57783  0.53074 -0.01280 -0.99448  0.008065  0.003269  0.007836     2.467
   1.59499  0.54790 -0.01211 -0.99614  0.008166  0.003312  0.007765     2.465
   1.61214  0.56503 -0.01143 -0.99782  0.008261  0.003354  0.007705     2.463
   1.62928  0.58215 -0.01076 -0.99954  0.008350  0.003394  0.007660     2.460
   1.64639  0.59926 -0.01011 -1.00135  0.008429  0.003432  0.007633     2.456
   1.66350  0.61635 -0.00947 -1.00322  0.008501  0.003468  0.007621     2.451
   1.68058  0.63342 -0.00885 -1.00523  0.008562  0.003502  0.007631     2.445
   1.69766  0.65049 -0.00825 -1.00736  0.008613  0.003533  0.007657     2.438
   1.71473  0.66755 -0.00768 -1.00964  0.008655  0.003562  0.007702     2.430
   1.73178  0.68459 -0.00712 -1.01210  0.008684  0.003588  0.007768     2.420
   1.74883  0.70164 -0.00659 -1.01473  0.008705  0.003612  0.007850     2.410
   1.76588  0.71867 -0.00608 -1.01761  0.008712  0.003632  0.007958     2.399
   1.78292  0.73570 -0.00560 -1.02070  0.008708  0.003649  0.008083     2.387
   1.79995  0.75273 -0.00514 -1.02408  0.008692  0.003663  0.008234     2.373
   1.81698  0.76976 -0.00471 -1.02772  0.008665  0.003673  0.008404     2.359
   1.83401  0.78678 -0.00431 -1.03172  0.008623  0.003679  0.008603     2.344
   1.85104  0.80381 -0.00393 -1.03607  0.008569  0.003681  0.008830     2.328
   1.86807  0.82084 -0.00357 -1.04085  0.008499  0.003679  0.009094     2.310
   1.88510  0.83786 -0.00324 -1.04610  0.008415  0.003672  0.009392     2.292
   1.90213  0.85489 -0.00294 -1.05193  0.008311  0.003659  0.009742     2.272
   1.91914  0.87190 -0.00266 -1.05837  0.008191  0.003640  0.010139     2.251
   1.93613  0.88889 -0.00241 -1.06556  0.008050  0.003614  0.010604     2.228
   1.95305  0.90581 -0.00218 -1.07369  0.007882  0.003579  0.011162     2.202
   1.96983  0.92258 -0.00197 -1.08290  0.007687  0.003535  0.011825     2.175
   1.98627  0.93902 -0.00179 -1.09340  0.007459  0.003479  0.012631     2.144
   2.00209  0.95483 -0.00163 -1.10539  0.007195  0.003410  0.013624     2.110
   2.01678  0.96953 -0.00150 -1.11888  0.006896  0.003327  0.014836     2.073
   2.02984  0.98258 -0.00139 -1.13406  0.006556  0.003228  0.016362     2.031
   2.04093  0.99368 -0.00131 -1.15050  0.006196  0.003119  0.018182     1.987
   2.04725  1.00000 -0.00126 -1.16779  0.005748  0.002984  0.020820     1.926
   2.04725  1.00010 -0.00001  1.16779  0.178937  0.006214  0.000000    28.796
   2.05356  1.00636 -0.00080  1.16498  0.178858  0.006677  0.000000    26.786
   2.06096  1.01372 -0.00158  1.16143  0.178513  0.007266  0.000000    24.570
   2.06964  1.02235 -0.00241  1.15724  0.177984  0.007966  0.000000    22.342
   2.07981  1.03249 -0.00328  1.15227  0.177220  0.008803  0.000000    20.132
   2.09174  1.04439 -0.00421  1.14636  0.176163  0.009809  0.000000    17.960
   2.10574  1.05834 -0.00520  1.13939  0.174721  0.011009  0.000000    15.871
   2.12215  1.07472 -0.00622  1.13115  0.172782  0.012444  0.000000    13.885
   2.14139  1.09394 -0.00727  1.12139  0.170208  0.014164  0.000000    12.017
   2.16396  1.11648 -0.00832  1.10983  0.166822  0.016233  0.000000    10.277
   2.19042  1.14292 -0.00935  1.09609  0.162404  0.018727  0.000000     8.672
   2.22145  1.17394 -0.01032  1.07977  0.156682  0.021737  0.000000     7.208
   2.25784  1.21032 -0.01116  1.05991  0.149385  0.025471  0.000000     5.865
   2.30052  1.25299 -0.01181  1.03507  0.140247  0.030249  0.000000     4.636
   2.35057  1.30304 -0.01217  1.00293  0.129154  0.036645  0.000000     3.524
   2.40926  1.36173 -0.01212  0.97446  0.115639  0.042471  0.000000     2.723
   2.47809  1.43056 -0.01151  0.95439  0.100653  0.046585  0.000000     2.161
   2.55880  1.51126 -0.01016  0.94515  0.085866  0.048417  0.000000     1.773
   2.65345  1.60588 -0.00784  0.94593  0.072987  0.048272  0.000000     1.512
   2.76445  1.71682 -0.00429  0.95313  0.062937  0.047034  0.000000     1.338
   2.89461  1.84688  0.00084  0.96284  0.055630  0.045496  0.000000     1.223
   3.04725  1.99936  0.00793  0.98447  0.048344  0.042392  0.000000     1.140
