#    s        x        y     Ue/Vinf    Dstar     Theta      Cf       H
   0.00000  1.00000  0.00126  1.00363  0.065678  0.018539  0.000045     3.543
   0.00630  0.99392  0.00292  1.00560  0.064670  0.018338  0.000049     3.526
   0.01727  0.98333  0.00577  1.00916  0.062885  0.017985  0.000056     3.497
   0.03004  0.97098  0.00904  1.01355  0.060839  0.017561  0.000065     3.464
   0.04430  0.95718  0.01262  1.01882  0.058626  0.017072  0.000074     3.434
   0.05958  0.94237  0.01638  1.02491  0.056354  0.016528  0.000083     3.410
   0.07546  0.92696  0.02021  1.03174  0.054112  0.015945  0.000091     3.394
   0.09164  0.91123  0.02403  1.03919  0.051958  0.015338  0.000097     3.388
   0.10799  0.89533  0.02780  1.04724  0.049924  0.014712  0.000101     3.393
   0.12441  0.87933  0.03149  1.05590  0.048022  0.014071  0.000100     3.413
   0.14087  0.86327  0.03511  1.06520  0.046263  0.013416  0.000094     3.448
   0.15734  0.84718  0.03864  1.07522  0.044643  0.012745  0.000083     3.503
   0.17383  0.83106  0.04208  1.08612  0.043163  0.012052  0.000063     3.581
   0.19032  0.81492  0.04544  1.09807  0.041813  0.011331  0.000035     3.690
   0.20680  0.79875  0.04870  1.11116  0.040593  0.010582 -0.000001     3.836
   0.22329  0.78258  0.05188  1.12539  0.039491  0.009813 -0.000045     4.024
   0.23978  0.76638  0.05496  1.14076  0.038500  0.009029 -0.000092     4.264
   0.25626  0.75017  0.05796  1.15730  0.037611  0.008233 -0.000139     4.568
   0.27274  0.73395  0.06086  1.17511  0.036807  0.007426 -0.000179     4.956
   0.28921  0.71772  0.06368  1.19438  0.036071  0.006606 -0.000211     5.461
   0.30568  0.70148  0.06640  1.21541  0.035376  0.005766 -0.000238     6.135
   0.32214  0.68523  0.06902  1.23887  0.034688  0.004892 -0.000272     7.091
   0.33859  0.66898  0.07155  1.26546  0.033962  0.003973 -0.000326     8.549
   0.35503  0.65272  0.07398  1.29656  0.033120  0.002983 -0.000370    11.103
   0.37146  0.63645  0.07632  1.33214  0.032072  0.001954 -0.000652    16.416
   0.38788  0.62019  0.07855  1.33281  0.031407  0.001939 -0.000658    16.200
   0.40429  0.60392  0.08069  1.33341  0.030520  0.001926 -0.000664    15.844
   0.42068  0.58766  0.08272  1.33396  0.029471  0.001915 -0.000669    15.386
   0.43705  0.57140  0.08465  1.33448  0.028303  0.001906 -0.000674    14.852
   0.45341  0.55514  0.08647  1.33500  0.027039  0.001897 -0.000679    14.256
   0.46975  0.53889  0.08818  1.33552  0.025701  0.001888 -0.000685    13.613
   0.48606  0.52265  0.08978  1.33607  0.024302  0.001879 -0.000691    12.931
   0.50236  0.50642  0.09127  1.33665  0.022857  0.001871 -0.000698    12.220
   0.51863  0.49021  0.09264  1.33730  0.021380  0.001861 -0.000706    11.487
   0.53487  0.47402  0.09390  1.33803  0.019878  0.001851 -0.000716    10.739
   0.55108  0.45785  0.09503  1.33889  0.018362  0.001840 -0.000727     9.981
   0.56725  0.44172  0.09603  1.33992  0.016844  0.001827 -0.000742     9.221
   0.58335  0.42564  0.09690  1.34117  0.015333  0.001812 -0.000760     8.463
   0.59935  0.40965  0.09765  1.34272  0.013843  0.001794 -0.000784     7.716
   0.61519  0.39382  0.09824  1.34467  0.012381  0.001773 -0.000817     6.982
   0.63085  0.37817  0.09865  1.34721  0.011024  0.001748 -0.000861     6.305
   0.64639  0.36263  0.09885  1.35050  0.009780  0.001718 -0.000912     5.692
   0.66187  0.34716  0.09884  1.35473  0.008652  0.001683 -0.000932     5.142
   0.67728  0.33174  0.09863  1.36008  0.007646  0.001641 -0.000861     4.658
   0.69264  0.31639  0.09821  1.36660  0.006760  0.001595 -0.000603     4.240
   0.70795  0.30109  0.09757  1.37414  0.005995  0.001544 -0.000106     3.884
   0.72321  0.28586  0.09672  1.38288  0.005346  0.001488  0.000615     3.593
   0.73841  0.27069  0.09564  1.39265  0.004802  0.001427  0.001501     3.364
   0.75355  0.25561  0.09433  1.40303  0.004351  0.001365  0.002478     3.188
   0.76863  0.24061  0.09280  1.41350  0.003977  0.001303  0.003491     3.052
   0.78363  0.22571  0.09103  1.42363  0.003666  0.001243  0.004492     2.950
   0.79855  0.21092  0.08902  1.43320  0.003400  0.001185  0.005476     2.870
   0.81339  0.19626  0.08678  1.44202  0.003172  0.001129  0.006425     2.809
   0.82811  0.18175  0.08429  1.45008  0.002970  0.001075  0.007347     2.762
   0.84271  0.16741  0.08155  1.45737  0.002788  0.001024  0.008253     2.724
   0.85717  0.15327  0.07856  1.46391  0.002622  0.000973  0.009137     2.695
   0.87144  0.13937  0.07533  1.46983  0.002466  0.000923  0.010045     2.671
   0.88548  0.12576  0.07185  1.47508  0.002319  0.000874  0.010953     2.652
   0.89921  0.11254  0.06815  1.47982  0.002179  0.000826  0.011895     2.638
   0.91255  0.09978  0.06426  1.48414  0.002042  0.000777  0.012908     2.626
   0.92536  0.08762  0.06020  1.48801  0.001910  0.000729  0.013974     2.618
   0.93750  0.07622  0.05606  1.49160  0.001780  0.000682  0.015161     2.610
   0.94879  0.06572  0.05190  1.49485  0.001654  0.000635  0.016470     2.604
   0.95911  0.05625  0.04782  1.49778  0.001533  0.000590  0.017923     2.598
   0.96837  0.04786  0.04389  1.50039  0.001417  0.000547  0.019598     2.591
   0.97657  0.04055  0.04017  1.50242  0.001308  0.000506  0.021421     2.584
   0.98379  0.03423  0.03668  1.50393  0.001206  0.000468  0.023505     2.575
   0.99012  0.02879  0.03343  1.50468  0.001109  0.000433  0.025886     2.563
   0.99570  0.02411  0.03040  1.50440  0.001018  0.000400  0.028643     2.549
   1.00063  0.02008  0.02756  1.50262  0.000935  0.000369  0.031635     2.535
   1.00502  0.01660  0.02489  1.49927  0.000855  0.000340  0.035210     2.517
   1.00896  0.01357  0.02236  1.49344  0.000782  0.000313  0.039055     2.500
   1.01253  0.01095  0.01995  1.48491  0.000712  0.000287  0.043654     2.478
   1.01577  0.00867  0.01764  1.47229  0.000648  0.000264  0.048702     2.456
   1.01874  0.00671  0.01541  1.45462  0.000587  0.000241  0.054460     2.431
   1.02149  0.00502  0.01324  1.43012  0.000532  0.000221  0.060503     2.408
   1.02404  0.00360  0.01113  1.39715  0.000480  0.000202  0.067338     2.379
   1.02642  0.00242  0.00906  1.35258  0.000435  0.000185  0.073826     2.354
   1.02866  0.00148  0.00703  1.29436  0.000395  0.000170  0.079734     2.329
   1.03077  0.00077  0.00504  1.21962  0.000360  0.000156  0.084439     2.302
   1.03277  0.00029  0.00309  1.12605  0.000333  0.000146  0.086260     2.279
   1.03468  0.00004  0.00120  1.01435  0.000312  0.000138  0.084137     2.261
   1.03651  0.00001 -0.00064  0.88819  0.000298  0.000132  0.077975     2.251
   1.03838  0.00020 -0.00249  0.74268  0.000287  0.000128  0.068585     2.238
   1.04030  0.00065 -0.00436  0.57699  0.000283  0.000127  0.054664     2.225
   1.04230  0.00137 -0.00623  0.40221  0.000286  0.000128  0.037407     2.233
   1.04439  0.00239 -0.00805  0.22450  0.000294  0.000133  0.020639     2.214
   1.04657  0.00369 -0.00980  0.06176  0.000334  0.000150  0.004935     2.230
   1.04888  0.00527 -0.01148 -0.08354  0.000334  0.000150  0.006670     2.230
   1.05132  0.00712 -0.01307 -0.21124  0.000383  0.000170  0.014332     2.257
   1.05393  0.00925 -0.01459 -0.31693  0.000421  0.000187  0.019776     2.246
   1.05675  0.01167 -0.01603 -0.40768  0.000466  0.000205  0.022441     2.271
   1.05979  0.01438 -0.01741 -0.48327  0.000517  0.000227  0.023782     2.281
   1.06312  0.01744 -0.01873 -0.54742  0.000573  0.000250  0.023998     2.295
   1.06679  0.02087 -0.02000 -0.60226  0.000633  0.000274  0.023625     2.307
   1.07086  0.02476 -0.02123 -0.64924  0.000700  0.000301  0.022690     2.322
   1.07542  0.02916 -0.02242 -0.68991  0.000773  0.000331  0.021584     2.335
   1.08058  0.03419 -0.02357 -0.72514  0.000855  0.000364  0.020221     2.350
   1.08647  0.03998 -0.02467 -0.75591  0.000944  0.000400  0.018840     2.363
   1.09325  0.04667 -0.02572 -0.78269  0.001045  0.000439  0.017363     2.378
   1.10108  0.05445 -0.02670 -0.80587  0.001157  0.000483  0.015908     2.393
   1.11013  0.06345 -0.02758 -0.82559  0.001283  0.000533  0.014458     2.409
   1.12048  0.07377 -0.02833 -0.84216  0.001421  0.000586  0.013120     2.424
   1.13215  0.08543 -0.02891 -0.85567  0.001571  0.000644  0.011862     2.440
   1.14504  0.09832 -0.02929 -0.86633  0.001731  0.000705  0.010722     2.456
   1.15896  0.11223 -0.02947 -0.87452  0.001896  0.000768  0.009727     2.471
   1.17368  0.12696 -0.02945 -0.88057  0.002067  0.000832  0.008843     2.486
   1.18901  0.14228 -0.02924 -0.88495  0.002238  0.000895  0.008090     2.499
   1.20480  0.15806 -0.02887 -0.88812  0.002407  0.000959  0.007458     2.511
   1.22092  0.17418 -0.02837 -0.89029  0.002575  0.001021  0.006900     2.523
   1.23731  0.19056 -0.02776 -0.89175  0.002740  0.001082  0.006427     2.533
   1.25391  0.20714 -0.02707 -0.89272  0.002899  0.001141  0.006024     2.541
   1.27067  0.22389 -0.02630 -0.89328  0.003057  0.001199  0.005668     2.549
   1.28758  0.24078 -0.02549 -0.89365  0.003206  0.001255  0.005374     2.554
   1.30460  0.25777 -0.02465 -0.89388  0.003350  0.001310  0.005123     2.558
   1.32169  0.27484 -0.02379 -0.89404  0.003488  0.001362  0.004908     2.560
   1.33881  0.29194 -0.02292 -0.89431  0.003613  0.001412  0.004746     2.559
   1.35590  0.30901 -0.02207 -0.89463  0.003733  0.001460  0.004605     2.557
   1.37294  0.32603 -0.02124 -0.89513  0.003839  0.001504  0.004506     2.552
   1.38994  0.34301 -0.02043 -0.89587  0.003933  0.001546  0.004441     2.544
   1.40689  0.35994 -0.01967 -0.89695  0.004011  0.001584  0.004416     2.532
   1.42382  0.37686 -0.01894 -0.89840  0.004075  0.001619  0.004424     2.518
   1.44075  0.39378 -0.01827 -0.90049  0.004115  0.001648  0.004494     2.496
   1.45775  0.41076 -0.01762 -0.90331  0.004131  0.001673  0.004616     2.470
   1.47481  0.42781 -0.01697 -0.90577  0.004183  0.001700  0.004618     2.460
   1.49192  0.44491 -0.01629 -0.90794  0.004252  0.001730  0.004563     2.458
   1.50907  0.46204 -0.01560 -0.90980  0.004334  0.001761  0.004471     2.461
   1.52625  0.47921 -0.01490 -0.91144  0.004420  0.001792  0.004371     2.466
   1.54344  0.49639 -0.01420 -0.91290  0.004508  0.001824  0.004268     2.472
   1.56064  0.51357 -0.01350 -0.91417  0.004598  0.001856  0.004163     2.478
   1.57783  0.53074 -0.01280 -0.91536  0.004685  0.001887  0.004072     2.482
   1.59499  0.54790 -0.01211 -0.91648  0.004768  0.001918  0.003991     2.486
   1.61214  0.56503 -0.01143 -0.91756  0.004848  0.001948  0.003918     2.488
   1.62928  0.58215 -0.01076 -0.91859  0.004926  0.001978  0.003853     2.490
   1.64639  0.59926 -0.01011 -0.91965  0.004997  0.002006  0.003803     2.490
   1.66350  0.61635 -0.00947 -0.92071  0.005065  0.002034  0.003757     2.490
   1.68058  0.63342 -0.00885 -0.92185  0.005125  0.002060  0.003728     2.488
   1.69766  0.65049 -0.00825 -0.92302  0.005183  0.002086  0.003702     2.485
   1.71473  0.66755 -0.00768 -0.92427  0.005234  0.002110  0.003687     2.480
   1.73178  0.68459 -0.00712 -0.92561  0.005280  0.002133  0.003681     2.475
   1.74883  0.70164 -0.00659 -0.92703  0.005321  0.002155  0.003680     2.469
   1.76588  0.71867 -0.00608 -0.92859  0.005355  0.002175  0.003692     2.462
   1.78292  0.73570 -0.00560 -0.93024  0.005385  0.002194  0.003707     2.454
   1.79995  0.75273 -0.00514 -0.93205  0.005409  0.002212  0.003733     2.445
   1.81698  0.76976 -0.00471 -0.93397  0.005428  0.002228  0.003763     2.436
   1.83401  0.78678 -0.00431 -0.93608  0.005440  0.002243  0.003804     2.425
   1.85104  0.80381 -0.00393 -0.93834  0.005447  0.002256  0.003850     2.415
   1.86807  0.82084 -0.00357 -0.94084  0.005445  0.002267  0.003911     2.402
   1.88510  0.83786 -0.00324 -0.94353  0.005438  0.002276  0.003977     2.389
   1.90213  0.85489 -0.00294 -0.94653  0.005420  0.002283  0.004063     2.374
   1.91914  0.87190 -0.00266 -0.94977  0.005397  0.002288  0.004155     2.359
   1.93613  0.88889 -0.00241 -0.95334  0.005364  0.002290  0.004264     2.343
   1.95305  0.90581 -0.00218 -0.95737  0.005316  0.002288  0.004400     2.324
   1.96983  0.92258 -0.00197 -0.96185  0.005256  0.002283  0.004561     2.303
   1.98627  0.93902 -0.00179 -0.96691  0.005179  0.002273  0.004757     2.279
   2.00209  0.95483 -0.00163 -0.97264  0.005081  0.002257  0.005001     2.252
   2.01678  0.96953 -0.00150 -0.97900  0.004963  0.002234  0.005296     2.221
   2.02984  0.98258 -0.00139 -0.98620  0.004814  0.002203  0.005680     2.185
   2.04093  0.99368 -0.00131 -0.99391  0.004649  0.002166  0.006129     2.147
   2.04725  1.00000 -0.00126 -1.00363  0.004372  0.002101  0.006949     2.081
   2.04725  1.00010 -0.00001  1.00363  0.072526  0.020640  0.000000     3.514
   2.05356  1.00636 -0.00081  1.00077  0.071957  0.020965  0.000000     3.432
   2.06096  1.01372 -0.00159  0.99666  0.071102  0.021434  0.000000     3.317
   2.06964  1.02235 -0.00243  0.99240  0.070000  0.021922  0.000000     3.193
   2.07981  1.03249 -0.00333  0.98771  0.068639  0.022460  0.000000     3.056
   2.09174  1.04438 -0.00429  0.98266  0.066989  0.023041  0.000000     2.907
   2.10574  1.05833 -0.00532  0.97737  0.065016  0.023650  0.000000     2.749
   2.12215  1.07471 -0.00640  0.97201  0.062694  0.024264  0.000000     2.584
   2.14139  1.09392 -0.00752  0.96686  0.060008  0.024852  0.000000     2.415
   2.16396  1.11645 -0.00868  0.96224  0.056971  0.025372  0.000000     2.245
   2.19042  1.14289 -0.00984  0.95855  0.053626  0.025781  0.000000     2.080
   2.22145  1.17391 -0.01097  0.95617  0.050059  0.026038  0.000000     1.922
   2.25784  1.21028 -0.01203  0.95542  0.046394  0.026118  0.000000     1.776
   2.30052  1.25295 -0.01295  0.95639  0.042784  0.026019  0.000000     1.644
   2.35057  1.30299 -0.01366  0.95895  0.039380  0.025771  0.000000     1.528
   2.40926  1.36168 -0.01406  0.96270  0.036303  0.025423  0.000000     1.428
   2.47809  1.43051 -0.01401  0.96714  0.033623  0.025031  0.000000     1.343
   2.55880  1.51122 -0.01336  0.97175  0.031356  0.024640  0.000000     1.273
   2.65345  1.60586 -0.01192  0.97617  0.029479  0.024280  0.000000     1.214
   2.76445  1.71683 -0.00945  0.98018  0.027951  0.023964  0.000000     1.166
   2.89461  1.84694 -0.00567  0.98370  0.026726  0.023696  0.000000     1.128
   3.04725  1.99948 -0.00023  0.98922  0.025539  0.023286  0.000000     1.097
