#    s        x        y     Ue/Vinf    Dstar     Theta      Cf       H
   0.00000  1.00000  0.00126  1.10343  0.099305  0.004074 -0.000268    24.375
   0.00630  0.99392  0.00292  1.10348  0.098291  0.004072 -0.000765    24.138
   0.01727  0.98333  0.00577  1.10354  0.096438  0.004069 -0.000766    23.699
   0.03004  0.97098  0.00904  1.10361  0.094210  0.004067 -0.000767    23.164
   0.04430  0.95718  0.01262  1.10368  0.091678  0.004065 -0.000769    22.553
   0.05958  0.94237  0.01638  1.10375  0.088932  0.004063 -0.000770    21.887
   0.07546  0.92696  0.02021  1.10383  0.086056  0.004061 -0.000771    21.188
   0.09164  0.91123  0.02403  1.10391  0.083110  0.004060 -0.000773    20.472
   0.10799  0.89533  0.02780  1.10400  0.080135  0.004058 -0.000774    19.749
   0.12441  0.87933  0.03149  1.10410  0.077148  0.004055 -0.000776    19.024
   0.14087  0.86327  0.03511  1.10420  0.074167  0.004053 -0.000778    18.301
   0.15734  0.84718  0.03864  1.10432  0.071199  0.004049 -0.000780    17.583
   0.17383  0.83106  0.04208  1.10445  0.068251  0.004045 -0.000783    16.871
   0.19032  0.81492  0.04544  1.10460  0.065328  0.004041 -0.000785    16.168
   0.20680  0.79875  0.04870  1.10477  0.062435  0.004035 -0.000789    15.474
   0.22329  0.78258  0.05188  1.10496  0.059574  0.004028 -0.000792    14.790
   0.23978  0.76638  0.05496  1.10519  0.056751  0.004020 -0.000797    14.117
   0.25626  0.75017  0.05796  1.10545  0.053968  0.004011 -0.000802    13.456
   0.27274  0.73395  0.06086  1.10575  0.051229  0.004000 -0.000807    12.809
   0.28921  0.71772  0.06368  1.10610  0.048538  0.003987 -0.000814    12.175
   0.30568  0.70148  0.06640  1.10650  0.045898  0.003972 -0.000821    11.556
   0.32214  0.68523  0.06902  1.10698  0.043311  0.003955 -0.000830    10.952
   0.33859  0.66898  0.07155  1.10754  0.040784  0.003935 -0.000840    10.364
   0.35503  0.65272  0.07398  1.10819  0.038317  0.003913 -0.000852     9.792
   0.37146  0.63645  0.07632  1.10896  0.035914  0.003888 -0.000865     9.238
   0.38788  0.62019  0.07855  1.10986  0.033580  0.003859 -0.000881     8.702
   0.40429  0.60392  0.08069  1.11092  0.031319  0.003826 -0.000901     8.185
   0.42068  0.58766  0.08272  1.11217  0.029132  0.003790 -0.000923     7.687
   0.43705  0.57140  0.08465  1.11364  0.027027  0.003749 -0.000951     7.209
   0.45341  0.55514  0.08647  1.11537  0.025004  0.003704 -0.000984     6.751
   0.46975  0.53889  0.08818  1.11741  0.023070  0.003653 -0.001024     6.316
   0.48606  0.52265  0.08978  1.11983  0.021227  0.003596 -0.001071     5.903
   0.50236  0.50642  0.09127  1.12268  0.019478  0.003533 -0.001112     5.513
   0.51863  0.49021  0.09264  1.12604  0.017828  0.003464 -0.001129     5.147
   0.53487  0.47402  0.09390  1.12998  0.016277  0.003388 -0.001097     4.805
   0.55108  0.45785  0.09503  1.13456  0.014826  0.003304 -0.000966     4.487
   0.56725  0.44172  0.09603  1.13980  0.013476  0.003214 -0.000686     4.193
   0.58335  0.42564  0.09690  1.14564  0.012227  0.003119 -0.000215     3.920
   0.59935  0.40965  0.09765  1.15222  0.011074  0.003017  0.000481     3.671
   0.61519  0.39382  0.09824  1.15956  0.010010  0.002906  0.001440     3.444
   0.63085  0.37817  0.09865  1.16747  0.009089  0.002791  0.002571     3.256
   0.64639  0.36263  0.09885  1.17565  0.008302  0.002675  0.003817     3.104
   0.66187  0.34716  0.09884  1.18378  0.007626  0.002559  0.005139     2.980
   0.67728  0.33174  0.09863  1.19155  0.007047  0.002447  0.006497     2.880
   0.69264  0.31639  0.09821  1.19869  0.006547  0.002339  0.007865     2.799
   0.70795  0.30109  0.09757  1.20501  0.006112  0.002236  0.009227     2.733
   0.72321  0.28586  0.09672  1.21037  0.005731  0.002139  0.010565     2.679
   0.73841  0.27069  0.09564  1.21466  0.005392  0.002046  0.011888     2.635
   0.75355  0.25561  0.09433  1.21781  0.005088  0.001958  0.013178     2.598
   0.76863  0.24061  0.09280  1.21979  0.004810  0.001874  0.014464     2.567
   0.78363  0.22571  0.09103  1.22051  0.004556  0.001793  0.015731     2.541
   0.79855  0.21092  0.08902  1.21996  0.004318  0.001715  0.016995     2.518
   0.81339  0.19626  0.08678  1.21807  0.004095  0.001639  0.018271     2.499
   0.82811  0.18175  0.08429  1.21475  0.003883  0.001564  0.019548     2.483
   0.84271  0.16741  0.08155  1.20998  0.003678  0.001491  0.020890     2.467
   0.85717  0.15327  0.07856  1.20353  0.003483  0.001418  0.022222     2.455
   0.87144  0.13937  0.07533  1.19542  0.003290  0.001346  0.023659     2.443
   0.88548  0.12576  0.07185  1.18536  0.003101  0.001275  0.025149     2.433
   0.89921  0.11254  0.06815  1.17321  0.002916  0.001203  0.026719     2.424
   0.91255  0.09978  0.06426  1.15882  0.002733  0.001132  0.028398     2.416
   0.92536  0.08762  0.06020  1.14202  0.002552  0.001060  0.030227     2.407
   0.93750  0.07622  0.05606  1.12262  0.002376  0.000990  0.032164     2.400
   0.94879  0.06572  0.05190  1.10064  0.002203  0.000921  0.034288     2.391
   0.95911  0.05625  0.04782  1.07604  0.002039  0.000855  0.036483     2.384
   0.96837  0.04786  0.04389  1.04906  0.001884  0.000793  0.038815     2.376
   0.97657  0.04055  0.04017  1.01968  0.001737  0.000734  0.041274     2.367
   0.98379  0.03423  0.03668  0.98785  0.001604  0.000680  0.043646     2.359
   0.99012  0.02879  0.03343  0.95371  0.001480  0.000629  0.046022     2.351
   0.99570  0.02411  0.03040  0.91688  0.001364  0.000583  0.048494     2.341
   1.00063  0.02008  0.02756  0.87671  0.001258  0.000539  0.050669     2.332
   1.00502  0.01660  0.02489  0.83280  0.001159  0.000499  0.052846     2.321
   1.00896  0.01357  0.02236  0.78432  0.001070  0.000462  0.054248     2.314
   1.01253  0.01095  0.01995  0.73067  0.000982  0.000427  0.055779     2.300
   1.01577  0.00867  0.01764  0.67007  0.000906  0.000395  0.055866     2.292
   1.01874  0.00671  0.01541  0.60201  0.000831  0.000365  0.055313     2.280
   1.02149  0.00502  0.01324  0.52415  0.000765  0.000337  0.052912     2.268
   1.02404  0.00360  0.01113  0.43586  0.000706  0.000312  0.047985     2.262
   1.02642  0.00242  0.00906  0.33500  0.000651  0.000290  0.040656     2.243
   1.02866  0.00148  0.00703  0.22192  0.000605  0.000269  0.028792     2.250
   1.03077  0.00077  0.00504  0.09254  0.000548  0.000246  0.013513     2.230
   1.03277  0.00029  0.00309 -0.04827  0.000548  0.000246  0.007048     2.230
   1.03468  0.00004  0.00120 -0.19357  0.000516  0.000232  0.030216     2.222
   1.03651  0.00001 -0.00064 -0.34708  0.000498  0.000224  0.056023     2.225
   1.03838  0.00020 -0.00249 -0.50627  0.000497  0.000223  0.081253     2.232
   1.04030  0.00065 -0.00436 -0.66598  0.000504  0.000226  0.105053     2.236
   1.04230  0.00137 -0.00623 -0.81416  0.000531  0.000235  0.119646     2.257
   1.04439  0.00239 -0.00805 -0.94256  0.000570  0.000251  0.127173     2.273
   1.04657  0.00369 -0.00980 -1.04571  0.000630  0.000273  0.124037     2.304
   1.04888  0.00527 -0.01148 -1.12313  0.000705  0.000302  0.115609     2.334
   1.05132  0.00712 -0.01307 -1.17917  0.000795  0.000336  0.104387     2.366
   1.05393  0.00925 -0.01459 -1.21769  0.000901  0.000375  0.091813     2.402
   1.05675  0.01167 -0.01603 -1.24364  0.001017  0.000418  0.080464     2.433
   1.05979  0.01438 -0.01741 -1.26006  0.001148  0.000465  0.069741     2.467
   1.06312  0.01744 -0.01873 -1.26900  0.001294  0.000517  0.059908     2.504
   1.06679  0.02087 -0.02000 -1.27286  0.001452  0.000573  0.051729     2.536
   1.07086  0.02476 -0.02123 -1.27265  0.001628  0.000633  0.044406     2.570
   1.07542  0.02916 -0.02242 -1.26932  0.001822  0.000700  0.038073     2.604
   1.08058  0.03419 -0.02357 -1.26350  0.002037  0.000772  0.032562     2.639
   1.08647  0.03998 -0.02467 -1.25568  0.002276  0.000851  0.027802     2.673
   1.09325  0.04667 -0.02572 -1.24610  0.002544  0.000939  0.023619     2.709
   1.10108  0.05445 -0.02670 -1.23506  0.002844  0.001036  0.019993     2.746
   1.11013  0.06345 -0.02758 -1.22279  0.003181  0.001142  0.016832     2.785
   1.12048  0.07377 -0.02833 -1.20969  0.003553  0.001259  0.014173     2.823
   1.13215  0.08543 -0.02891 -1.19615  0.003957  0.001383  0.011941     2.861
   1.14504  0.09832 -0.02929 -1.18258  0.004388  0.001514  0.010079     2.899
   1.15896  0.11223 -0.02947 -1.16938  0.004837  0.001648  0.008572     2.936
   1.17368  0.12696 -0.02945 -1.15680  0.005295  0.001783  0.007346     2.970
   1.18901  0.14228 -0.02924 -1.14501  0.005754  0.001917  0.006371     3.002
   1.20480  0.15806 -0.02887 -1.13404  0.006209  0.002049  0.005581     3.030
   1.22092  0.17418 -0.02837 -1.12390  0.006654  0.002178  0.004951     3.055
   1.23731  0.19056 -0.02776 -1.11453  0.007086  0.002303  0.004448     3.077
   1.25391  0.20714 -0.02707 -1.10590  0.007501  0.002425  0.004053     3.093
   1.27067  0.22389 -0.02630 -1.09793  0.007900  0.002544  0.003734     3.106
   1.28758  0.24078 -0.02549 -1.09060  0.008274  0.002658  0.003499     3.113
   1.30460  0.25777 -0.02465 -1.08385  0.008625  0.002769  0.003322     3.115
   1.32169  0.27484 -0.02379 -1.07765  0.008948  0.002876  0.003202     3.112
   1.33881  0.29194 -0.02292 -1.07199  0.009239  0.002978  0.003136     3.102
   1.35590  0.30901 -0.02207 -1.06684  0.009499  0.003075  0.003111     3.089
   1.37294  0.32603 -0.02124 -1.06220  0.009722  0.003168  0.003132     3.069
   1.38994  0.34301 -0.02043 -1.05806  0.009907  0.003255  0.003195     3.043
   1.40689  0.35994 -0.01967 -1.05440  0.010054  0.003337  0.003300     3.012
   1.42382  0.37686 -0.01894 -1.05125  0.010160  0.003414  0.003448     2.976
   1.44075  0.39378 -0.01827 -1.04863  0.010220  0.003484  0.003647     2.934
   1.45775  0.41076 -0.01762 -1.04657  0.010238  0.003547  0.003893     2.887
   1.47481  0.42781 -0.01697 -1.04469  0.010288  0.003609  0.004069     2.851
   1.49192  0.44491 -0.01629 -1.04299  0.010357  0.003670  0.004198     2.822
   1.50907  0.46204 -0.01560 -1.04144  0.010440  0.003730  0.004289     2.799
   1.52625  0.47921 -0.01490 -1.04000  0.010533  0.003789  0.004352     2.780
   1.54344  0.49639 -0.01420 -1.03868  0.010633  0.003847  0.004397     2.764
   1.56064  0.51357 -0.01350 -1.03745  0.010739  0.003904  0.004423     2.750
   1.57783  0.53074 -0.01280 -1.03634  0.010843  0.003960  0.004445     2.738
   1.59499  0.54790 -0.01211 -1.03533  0.010945  0.004014  0.004462     2.727
   1.61214  0.56503 -0.01143 -1.03442  0.011045  0.004066  0.004479     2.716
   1.62928  0.58215 -0.01076 -1.03362  0.011139  0.004117  0.004497     2.705
   1.64639  0.59926 -0.01011 -1.03294  0.011226  0.004166  0.004520     2.694
   1.66350  0.61635 -0.00947 -1.03237  0.011305  0.004213  0.004548     2.683
   1.68058  0.63342 -0.00885 -1.03195  0.011373  0.004258  0.004586     2.671
   1.69766  0.65049 -0.00825 -1.03165  0.011432  0.004301  0.004632     2.658
   1.71473  0.66755 -0.00768 -1.03150  0.011480  0.004341  0.004687     2.644
   1.73178  0.68459 -0.00712 -1.03151  0.011515  0.004379  0.004753     2.630
   1.74883  0.70164 -0.00659 -1.03168  0.011539  0.004414  0.004831     2.614
   1.76588  0.71867 -0.00608 -1.03204  0.011549  0.004446  0.004922     2.598
   1.78292  0.73570 -0.00560 -1.03258  0.011545  0.004475  0.005026     2.580
   1.79995  0.75273 -0.00514 -1.03333  0.011527  0.004500  0.005144     2.561
   1.81698  0.76976 -0.00471 -1.03430  0.011495  0.004523  0.005277     2.542
   1.83401  0.78678 -0.00431 -1.03552  0.011447  0.004541  0.005428     2.521
   1.85104  0.80381 -0.00393 -1.03700  0.011382  0.004555  0.005598     2.499
   1.86807  0.82084 -0.00357 -1.03879  0.011300  0.004565  0.005790     2.475
   1.88510  0.83786 -0.00324 -1.04090  0.011201  0.004570  0.006005     2.451
   1.90213  0.85489 -0.00294 -1.04342  0.011078  0.004569  0.006253     2.424
   1.91914  0.87190 -0.00266 -1.04634  0.010937  0.004563  0.006529     2.397
   1.93613  0.88889 -0.00241 -1.04977  0.010771  0.004549  0.006848     2.368
   1.95305  0.90581 -0.00218 -1.05380  0.010576  0.004527  0.007217     2.336
   1.96983  0.92258 -0.00197 -1.05853  0.010352  0.004496  0.007649     2.302
   1.98627  0.93902 -0.00179 -1.06406  0.010092  0.004454  0.008157     2.266
   2.00209  0.95483 -0.00163 -1.07050  0.009797  0.004399  0.008759     2.227
   2.01678  0.96953 -0.00150 -1.07781  0.009470  0.004332  0.009461     2.186
   2.02984  0.98258 -0.00139 -1.08600  0.009111  0.004252  0.010285     2.143
   2.04093  0.99368 -0.00131 -1.09465  0.008746  0.004164  0.011192     2.100
   2.04725  1.00000 -0.00126 -1.10343  0.008329  0.004061  0.012333     2.051
   2.04725  1.00010 -0.00001  1.10343  0.110110  0.008135  0.000000    13.535
   2.05356  1.00636 -0.00082  1.10068  0.109618  0.008451  0.000000    12.971
   2.06096  1.01371 -0.00164  1.09705  0.108801  0.008869  0.000000    12.268
   2.06964  1.02234 -0.00254  1.09268  0.107733  0.009374  0.000000    11.492
   2.07981  1.03247 -0.00354  1.08740  0.106361  0.009987  0.000000    10.650
   2.09174  1.04435 -0.00463  1.08104  0.104614  0.010728  0.000000     9.752
   2.10574  1.05829 -0.00585  1.07336  0.102401  0.011627  0.000000     8.807
   2.12215  1.07464 -0.00718  1.06403  0.099613  0.012722  0.000000     7.830
   2.14139  1.09383 -0.00864  1.05262  0.096115  0.014069  0.000000     6.832
   2.16396  1.11634 -0.01024  1.03847  0.091758  0.015747  0.000000     5.827
   2.19042  1.14275 -0.01198  1.02045  0.086402  0.017902  0.000000     4.826
   2.22145  1.17372 -0.01386  0.99771  0.079923  0.020655  0.000000     3.869
   2.25784  1.21006 -0.01587  0.97624  0.072132  0.023274  0.000000     3.099
   2.30052  1.25268 -0.01802  0.95799  0.063366  0.025477  0.000000     2.487
   2.35057  1.30268 -0.02028  0.94656  0.054305  0.026812  0.000000     2.025
   2.40926  1.36132 -0.02264  0.94380  0.045924  0.027116  0.000000     1.694
   2.47809  1.43010 -0.02507  0.94841  0.039036  0.026647  0.000000     1.465
   2.55880  1.51078 -0.02754  0.95685  0.033904  0.025859  0.000000     1.311
   2.65345  1.60540 -0.02998  0.96585  0.030299  0.025082  0.000000     1.208
   2.76445  1.71637 -0.03234  0.97375  0.027830  0.024442  0.000000     1.139
   2.89461  1.84651 -0.03455  0.98013  0.026156  0.023950  0.000000     1.092
   3.04725  1.99915 -0.03651  0.98802  0.024785  0.023366  0.000000     1.061
