#    s        x        y     Ue/Vinf    Dstar     Theta      Cf       H
   0.00000  1.00000  0.00126  1.18347  0.196568  0.003024 -0.000308    65.012
   0.00630  0.99392  0.00292  1.18351  0.195100  0.003020 -0.001088    64.610
   0.01727  0.98333  0.00577  1.18357  0.192477  0.003014 -0.001090    63.870
   0.03004  0.97098  0.00904  1.18364  0.189316  0.003008 -0.001092    62.939
   0.04430  0.95718  0.01262  1.18370  0.185708  0.003003 -0.001094    61.847
   0.05958  0.94237  0.01638  1.18377  0.181774  0.002998 -0.001096    60.630
   0.07546  0.92696  0.02021  1.18383  0.177629  0.002994 -0.001098    59.323
   0.09164  0.91123  0.02403  1.18389  0.173356  0.002991 -0.001099    57.953
   0.10799  0.89533  0.02780  1.18395  0.169004  0.002989 -0.001101    56.540
   0.12441  0.87933  0.03149  1.18401  0.164600  0.002988 -0.001101    55.093
   0.14087  0.86327  0.03511  1.18406  0.160164  0.002987 -0.001102    53.622
   0.15734  0.84718  0.03864  1.18410  0.155703  0.002987 -0.001103    52.130
   0.17383  0.83106  0.04208  1.18415  0.151228  0.002987 -0.001103    50.623
   0.19032  0.81492  0.04544  1.18419  0.146742  0.002988 -0.001103    49.104
   0.20680  0.79875  0.04870  1.18423  0.142252  0.002990 -0.001103    47.576
   0.22329  0.78258  0.05188  1.18426  0.137758  0.002992 -0.001103    46.041
   0.23978  0.76638  0.05496  1.18430  0.133264  0.002995 -0.001102    44.500
   0.25626  0.75017  0.05796  1.18433  0.128776  0.002998 -0.001102    42.959
   0.27274  0.73395  0.06086  1.18435  0.124297  0.003001 -0.001101    41.417
   0.28921  0.71772  0.06368  1.18438  0.119827  0.003005 -0.001100    39.878
   0.30568  0.70148  0.06640  1.18440  0.115370  0.003009 -0.001100    38.343
   0.32214  0.68523  0.06902  1.18442  0.110929  0.003013 -0.001099    36.813
   0.33859  0.66898  0.07155  1.18444  0.106508  0.003018 -0.001098    35.292
   0.35503  0.65272  0.07398  1.18446  0.102108  0.003023 -0.001097    33.781
   0.37146  0.63645  0.07632  1.18448  0.097732  0.003028 -0.001097    32.281
   0.38788  0.62019  0.07855  1.18449  0.093381  0.003033 -0.001096    30.793
   0.40429  0.60392  0.08069  1.18451  0.089063  0.003037 -0.001096    29.322
   0.42068  0.58766  0.08272  1.18453  0.084776  0.003042 -0.001095    27.865
   0.43705  0.57140  0.08465  1.18455  0.080527  0.003047 -0.001095    26.428
   0.45341  0.55514  0.08647  1.18458  0.076315  0.003051 -0.001095    25.010
   0.46975  0.53889  0.08818  1.18462  0.072146  0.003055 -0.001096    23.613
   0.48606  0.52265  0.08978  1.18466  0.068023  0.003059 -0.001097    22.238
   0.50236  0.50642  0.09127  1.18472  0.063948  0.003062 -0.001098    20.887
   0.51863  0.49021  0.09264  1.18480  0.059929  0.003064 -0.001101    19.562
   0.53487  0.47402  0.09390  1.18490  0.055967  0.003064 -0.001104    18.264
   0.55108  0.45785  0.09503  1.18504  0.052065  0.003064 -0.001108    16.993
   0.56725  0.44172  0.09603  1.18522  0.048233  0.003062 -0.001114    15.754
   0.58335  0.42564  0.09690  1.18546  0.044476  0.003057 -0.001121    14.547
   0.59935  0.40965  0.09765  1.18578  0.040808  0.003051 -0.001131    13.377
   0.61519  0.39382  0.09824  1.18620  0.037236  0.003041 -0.001143    12.244
   0.63085  0.37817  0.09865  1.18677  0.033837  0.003027 -0.001160    11.177
   0.64639  0.36263  0.09885  1.18756  0.030608  0.003008 -0.001181    10.174
   0.66187  0.34716  0.09884  1.18862  0.027552  0.002984 -0.001208     9.234
   0.67728  0.33174  0.09863  1.19003  0.024673  0.002952 -0.001245     8.357
   0.69264  0.31639  0.09821  1.19191  0.021977  0.002913 -0.001294     7.544
   0.70795  0.30109  0.09757  1.19437  0.019470  0.002866 -0.001359     6.794
   0.72321  0.28586  0.09672  1.19760  0.017165  0.002808 -0.001446     6.112
   0.73841  0.27069  0.09564  1.20181  0.015063  0.002740 -0.001535     5.497
   0.75355  0.25561  0.09433  1.20722  0.013173  0.002661 -0.001542     4.951
   0.76863  0.24061  0.09280  1.21403  0.011494  0.002569 -0.001314     4.473
   0.78363  0.22571  0.09103  1.22227  0.010031  0.002468 -0.000681     4.064
   0.79855  0.21092  0.08902  1.23191  0.008771  0.002357  0.000436     3.721
   0.81339  0.19626  0.08678  1.24304  0.007704  0.002236  0.001998     3.445
   0.82811  0.18175  0.08429  1.25528  0.006813  0.002109  0.003895     3.230
   0.84271  0.16741  0.08155  1.26798  0.006071  0.001981  0.006020     3.065
   0.85717  0.15327  0.07856  1.28048  0.005454  0.001855  0.008267     2.940
   0.87144  0.13937  0.07533  1.29226  0.004933  0.001734  0.010578     2.845
   0.88548  0.12576  0.07185  1.30294  0.004489  0.001619  0.012913     2.773
   0.89921  0.11254  0.06815  1.31233  0.004102  0.001509  0.015256     2.718
   0.91255  0.09978  0.06426  1.32036  0.003757  0.001404  0.017658     2.676
   0.92536  0.08762  0.06020  1.32697  0.003445  0.001304  0.020144     2.642
   0.93750  0.07622  0.05606  1.33211  0.003159  0.001208  0.022743     2.616
   0.94879  0.06572  0.05190  1.33580  0.002897  0.001117  0.025492     2.594
   0.95911  0.05625  0.04782  1.33807  0.002655  0.001031  0.028439     2.576
   0.96837  0.04786  0.04389  1.33894  0.002431  0.000950  0.031701     2.559
   0.97657  0.04055  0.04017  1.33825  0.002228  0.000876  0.035125     2.544
   0.98379  0.03423  0.03668  1.33617  0.002041  0.000807  0.038935     2.529
   0.99012  0.02879  0.03343  1.33246  0.001871  0.000744  0.042968     2.515
   0.99570  0.02411  0.03040  1.32716  0.001712  0.000685  0.047654     2.498
   1.00063  0.02008  0.02756  1.31962  0.001569  0.000632  0.052510     2.483
   1.00502  0.01660  0.02489  1.30986  0.001435  0.000582  0.058079     2.466
   1.00896  0.01357  0.02236  1.29707  0.001311  0.000536  0.064061     2.449
   1.01253  0.01095  0.01995  1.28073  0.001195  0.000492  0.070827     2.429
   1.01577  0.00867  0.01764  1.25969  0.001090  0.000452  0.077710     2.411
   1.01874  0.00671  0.01541  1.23326  0.000990  0.000414  0.085700     2.389
   1.02149  0.00502  0.01324  1.19924  0.000900  0.000380  0.093635     2.368
   1.02404  0.00360  0.01113  1.15630  0.000818  0.000348  0.101185     2.349
   1.02642  0.00242  0.00906  1.10241  0.000742  0.000319  0.108793     2.325
   1.02866  0.00148  0.00703  1.03456  0.000678  0.000294  0.113955     2.305
   1.03077  0.00077  0.00504  0.95144  0.000622  0.000272  0.116314     2.284
   1.03277  0.00029  0.00309  0.85144  0.000578  0.000255  0.114217     2.264
   1.03468  0.00004  0.00120  0.73592  0.000546  0.000242  0.105543     2.253
   1.03651  0.00001 -0.00064  0.60856  0.000522  0.000233  0.092228     2.242
   1.03838  0.00020 -0.00249  0.46451  0.000506  0.000226  0.072975     2.236
   1.04030  0.00065 -0.00436  0.30481  0.000502  0.000226  0.048885     2.222
   1.04230  0.00137 -0.00623  0.14082  0.000519  0.000233  0.021697     2.230
   1.04439  0.00239 -0.00805 -0.02218  0.000519  0.000233  0.003418     2.230
   1.04657  0.00369 -0.00980 -0.17066  0.000579  0.000259  0.023410     2.238
   1.04888  0.00527 -0.01148 -0.29799  0.000630  0.000280  0.037274     2.247
   1.05132  0.00712 -0.01307 -0.40787  0.000688  0.000305  0.046157     2.259
   1.05393  0.00925 -0.01459 -0.49908  0.000766  0.000336  0.049868     2.278
   1.05675  0.01167 -0.01603 -0.57502  0.000846  0.000370  0.051543     2.287
   1.05979  0.01438 -0.01741 -0.63838  0.000939  0.000407  0.050693     2.305
   1.06312  0.01744 -0.01873 -0.69099  0.001041  0.000449  0.048789     2.320
   1.06679  0.02087 -0.02000 -0.73553  0.001151  0.000493  0.046427     2.333
   1.07086  0.02476 -0.02123 -0.77339  0.001271  0.000541  0.043535     2.349
   1.07542  0.02916 -0.02242 -0.80553  0.001405  0.000594  0.040405     2.364
   1.08058  0.03419 -0.02357 -0.83292  0.001553  0.000652  0.037237     2.380
   1.08647  0.03998 -0.02467 -0.85668  0.001712  0.000716  0.034292     2.393
   1.09325  0.04667 -0.02572 -0.87707  0.001892  0.000786  0.031272     2.409
   1.10108  0.05445 -0.02670 -0.89440  0.002092  0.000863  0.028385     2.424
   1.11013  0.06345 -0.02758 -0.90885  0.002315  0.000949  0.025635     2.440
   1.12048  0.07377 -0.02833 -0.92067  0.002560  0.001042  0.023119     2.456
   1.13215  0.08543 -0.02891 -0.93016  0.002821  0.001142  0.020877     2.470
   1.14504  0.09832 -0.02929 -0.93741  0.003100  0.001247  0.018846     2.485
   1.15896  0.11223 -0.02947 -0.94274  0.003388  0.001355  0.017082     2.500
   1.17368  0.12696 -0.02945 -0.94654  0.003679  0.001464  0.015579     2.512
   1.18901  0.14228 -0.02924 -0.94912  0.003971  0.001573  0.014287     2.524
   1.20480  0.15806 -0.02887 -0.95089  0.004255  0.001679  0.013223     2.534
   1.22092  0.17418 -0.02837 -0.95196  0.004537  0.001784  0.012284     2.543
   1.23731  0.19056 -0.02776 -0.95263  0.004809  0.001886  0.011509     2.550
   1.25391  0.20714 -0.02707 -0.95301  0.005071  0.001984  0.010851     2.556
   1.27067  0.22389 -0.02630 -0.95320  0.005325  0.002080  0.010283     2.560
   1.28758  0.24078 -0.02549 -0.95332  0.005567  0.002172  0.009810     2.563
   1.30460  0.25777 -0.02465 -0.95346  0.005794  0.002261  0.009422     2.563
   1.32169  0.27484 -0.02379 -0.95364  0.006010  0.002346  0.009093     2.562
   1.33881  0.29194 -0.02292 -0.95401  0.006206  0.002426  0.008852     2.558
   1.35590  0.30901 -0.02207 -0.95452  0.006388  0.002502  0.008651     2.553
   1.37294  0.32603 -0.02124 -0.95529  0.006548  0.002573  0.008523     2.545
   1.38994  0.34301 -0.02043 -0.95635  0.006689  0.002639  0.008448     2.535
   1.40689  0.35994 -0.01967 -0.95776  0.006807  0.002699  0.008431     2.522
   1.42382  0.37686 -0.01894 -0.95961  0.006898  0.002753  0.008484     2.506
   1.44075  0.39378 -0.01827 -0.96202  0.006960  0.002800  0.008611     2.486
   1.45775  0.41076 -0.01762 -0.96514  0.006988  0.002839  0.008827     2.461
   1.47481  0.42781 -0.01697 -0.96809  0.007055  0.002881  0.008886     2.449
   1.49192  0.44491 -0.01629 -0.97095  0.007139  0.002924  0.008872     2.442
   1.50907  0.46204 -0.01560 -0.97365  0.007237  0.002968  0.008803     2.439
   1.52625  0.47921 -0.01490 -0.97625  0.007339  0.003012  0.008718     2.437
   1.54344  0.49639 -0.01420 -0.97874  0.007445  0.003055  0.008618     2.437
   1.56064  0.51357 -0.01350 -0.98114  0.007551  0.003099  0.008516     2.437
   1.57783  0.53074 -0.01280 -0.98349  0.007653  0.003141  0.008426     2.437
   1.59499  0.54790 -0.01211 -0.98584  0.007749  0.003182  0.008351     2.435
   1.61214  0.56503 -0.01143 -0.98819  0.007839  0.003221  0.008289     2.434
   1.62928  0.58215 -0.01076 -0.99057  0.007923  0.003259  0.008242     2.431
   1.64639  0.59926 -0.01011 -0.99302  0.007998  0.003295  0.008217     2.427
   1.66350  0.61635 -0.00947 -0.99554  0.008065  0.003329  0.008207     2.423
   1.68058  0.63342 -0.00885 -0.99819  0.008120  0.003360  0.008224     2.417
   1.69766  0.65049 -0.00825 -1.00096  0.008168  0.003389  0.008254     2.410
   1.71473  0.66755 -0.00768 -1.00389  0.008205  0.003416  0.008306     2.402
   1.73178  0.68459 -0.00712 -1.00699  0.008231  0.003439  0.008379     2.393
   1.74883  0.70164 -0.00659 -1.01029  0.008249  0.003461  0.008470     2.384
   1.76588  0.71867 -0.00608 -1.01383  0.008253  0.003478  0.008588     2.373
   1.78292  0.73570 -0.00560 -1.01759  0.008248  0.003493  0.008722     2.361
   1.79995  0.75273 -0.00514 -1.02166  0.008231  0.003505  0.008885     2.348
   1.81698  0.76976 -0.00471 -1.02601  0.008203  0.003513  0.009068     2.335
   1.83401  0.78678 -0.00431 -1.03072  0.008162  0.003517  0.009283     2.321
   1.85104  0.80381 -0.00393 -1.03581  0.008109  0.003517  0.009526     2.306
   1.86807  0.82084 -0.00357 -1.04137  0.008041  0.003513  0.009810     2.289
   1.88510  0.83786 -0.00324 -1.04741  0.007959  0.003504  0.010129     2.272
   1.90213  0.85489 -0.00294 -1.05408  0.007859  0.003489  0.010507     2.252
   1.91914  0.87190 -0.00266 -1.06140  0.007743  0.003468  0.010935     2.232
   1.93613  0.88889 -0.00241 -1.06953  0.007606  0.003441  0.011435     2.211
   1.95305  0.90581 -0.00218 -1.07867  0.007445  0.003404  0.012036     2.187
   1.96983  0.92258 -0.00197 -1.08896  0.007256  0.003359  0.012754     2.160
   1.98627  0.93902 -0.00179 -1.10065  0.007037  0.003302  0.013629     2.131
   2.00209  0.95483 -0.00163 -1.11396  0.006781  0.003232  0.014713     2.098
   2.01678  0.96953 -0.00150 -1.12891  0.006491  0.003148  0.016046     2.062
   2.02984  0.98258 -0.00139 -1.14573  0.006158  0.003048  0.017746     2.020
   2.04093  0.99368 -0.00131 -1.16402  0.005803  0.002937  0.019802     1.976
   2.04725  1.00000 -0.00126 -1.18347  0.005351  0.002798  0.022894     1.912
   2.04725  1.00010 -0.00001  1.18347  0.204395  0.005822  0.000000    35.108
   2.05356  1.00636 -0.00080  1.18072  0.204456  0.006327  0.000000    32.315
   2.06096  1.01372 -0.00157  1.17728  0.204276  0.006963  0.000000    29.338
   2.06964  1.02236 -0.00237  1.17323  0.203939  0.007717  0.000000    26.426
   2.07981  1.03250 -0.00321  1.16847  0.203398  0.008614  0.000000    23.613
   2.09174  1.04440 -0.00409  1.16282  0.202600  0.009688  0.000000    20.912
   2.10574  1.05836 -0.00500  1.15619  0.201457  0.010965  0.000000    18.373
   2.12215  1.07474 -0.00593  1.14841  0.199863  0.012483  0.000000    16.011
   2.14139  1.09396 -0.00686  1.13926  0.197684  0.014292  0.000000    13.832
   2.16396  1.11651 -0.00776  1.12849  0.194749  0.016455  0.000000    11.835
   2.19042  1.14296 -0.00858  1.11586  0.190835  0.019033  0.000000    10.026
   2.22145  1.17399 -0.00928  1.10097  0.185678  0.022126  0.000000     8.392
   2.25784  1.21038 -0.00978  1.08310  0.178985  0.025910  0.000000     6.908
   2.30052  1.25305 -0.00999  1.06137  0.170411  0.030618  0.000000     5.566
   2.35057  1.30310 -0.00979  1.03407  0.159679  0.036704  0.000000     4.350
   2.40926  1.36179 -0.00903  0.99982  0.146621  0.044649  0.000000     3.284
   2.47809  1.43060 -0.00754  0.97178  0.130783  0.051350  0.000000     2.547
   2.55880  1.51127 -0.00508  0.95356  0.113564  0.055697  0.000000     2.039
   2.65345  1.60585 -0.00138  0.94654  0.096974  0.057309  0.000000     1.692
   2.76445  1.71672  0.00390  0.94912  0.082767  0.056754  0.000000     1.458
   2.89461  1.84668  0.01115  0.95785  0.071648  0.055024  0.000000     1.302
   3.04725  1.99902  0.02086  0.98727  0.059156  0.049881  0.000000     1.186
