#    s        x        y     Ue/Vinf    Dstar     Theta      Cf       H
   0.00000  1.00000  0.00126  1.46273  0.686421  0.034662 -0.000120    19.803
   0.00630  0.99392  0.00292  1.46312  0.683366  0.034459 -0.000121    19.831
   0.01727  0.98333  0.00577  1.46382  0.678030  0.034105 -0.000122    19.881
   0.03004  0.97098  0.00904  1.46462  0.671582  0.033695 -0.000124    19.931
   0.04430  0.95718  0.01262  1.46553  0.664205  0.033239 -0.000125    19.983
   0.05958  0.94237  0.01638  1.46652  0.656132  0.032752 -0.000127    20.033
   0.07546  0.92696  0.02021  1.46755  0.647592  0.032247 -0.000129    20.082
   0.09164  0.91123  0.02403  1.46862  0.638745  0.031732 -0.000132    20.129
   0.10799  0.89533  0.02780  1.46972  0.629688  0.031214 -0.000134    20.173
   0.12441  0.87933  0.03149  1.47083  0.620473  0.030693 -0.000136    20.215
   0.14087  0.86327  0.03511  1.47197  0.611129  0.030172 -0.000139    20.255
   0.15734  0.84718  0.03864  1.47312  0.601675  0.029650 -0.000141    20.293
   0.17383  0.83106  0.04208  1.47430  0.592122  0.029128 -0.000144    20.328
   0.19032  0.81492  0.04544  1.47549  0.582474  0.028606 -0.000147    20.362
   0.20680  0.79875  0.04870  1.47671  0.572739  0.028083 -0.000149    20.394
   0.22329  0.78258  0.05188  1.47795  0.562915  0.027561 -0.000152    20.425
   0.23978  0.76638  0.05496  1.47921  0.553010  0.027038 -0.000155    20.453
   0.25626  0.75017  0.05796  1.48050  0.543029  0.026515 -0.000159    20.480
   0.27274  0.73395  0.06086  1.48181  0.532967  0.025991 -0.000162    20.506
   0.28921  0.71772  0.06368  1.48316  0.522827  0.025468 -0.000165    20.529
   0.30568  0.70148  0.06640  1.48453  0.512618  0.024943 -0.000169    20.551
   0.32214  0.68523  0.06902  1.48593  0.502334  0.024418 -0.000173    20.572
   0.33859  0.66898  0.07155  1.48736  0.491979  0.023893 -0.000177    20.591
   0.35503  0.65272  0.07398  1.48883  0.481555  0.023366 -0.000181    20.609
   0.37146  0.63645  0.07632  1.49034  0.471060  0.022839 -0.000185    20.625
   0.38788  0.62019  0.07855  1.49188  0.460498  0.022312 -0.000190    20.639
   0.40429  0.60392  0.08069  1.49346  0.449870  0.021783 -0.000195    20.653
   0.42068  0.58766  0.08272  1.49509  0.439176  0.021253 -0.000200    20.665
   0.43705  0.57140  0.08465  1.49676  0.428418  0.020721 -0.000205    20.675
   0.45341  0.55514  0.08647  1.49848  0.417591  0.020189 -0.000211    20.685
   0.46975  0.53889  0.08818  1.50026  0.406705  0.019654 -0.000217    20.693
   0.48606  0.52265  0.08978  1.50209  0.395753  0.019118 -0.000223    20.700
   0.50236  0.50642  0.09127  1.50398  0.384741  0.018581 -0.000230    20.707
   0.51863  0.49021  0.09264  1.50594  0.373665  0.018041 -0.000237    20.712
   0.53487  0.47402  0.09390  1.50797  0.362532  0.017498 -0.000245    20.718
   0.55108  0.45785  0.09503  1.51007  0.351341  0.016954 -0.000253    20.724
   0.56725  0.44172  0.09603  1.51226  0.340090  0.016407 -0.000262    20.729
   0.58335  0.42564  0.09690  1.51453  0.328799  0.015857 -0.000271    20.735
   0.59935  0.40965  0.09765  1.51689  0.317478  0.015306 -0.000281    20.741
   0.61519  0.39382  0.09824  1.51934  0.306167  0.014756 -0.000292    20.748
   0.63085  0.37817  0.09865  1.52188  0.294923  0.014206 -0.000304    20.760
   0.64639  0.36263  0.09885  1.52454  0.283743  0.013653 -0.000317    20.783
   0.66187  0.34716  0.09884  1.52735  0.272594  0.013094 -0.000331    20.819
   0.67728  0.33174  0.09863  1.53037  0.261468  0.012517 -0.000347    20.889
   0.69264  0.31639  0.09821  1.53357  0.250370  0.011931 -0.000365    20.985
   0.70795  0.30109  0.09757  1.53699  0.239300  0.011335 -0.000385    21.111
   0.72321  0.28586  0.09672  1.54066  0.228270  0.010728 -0.000407    21.279
   0.73841  0.27069  0.09564  1.54460  0.217270  0.010106 -0.000433    21.498
   0.75355  0.25561  0.09433  1.54887  0.206320  0.009469 -0.000464    21.789
   0.76863  0.24061  0.09280  1.55353  0.195406  0.008813 -0.000499    22.173
   0.78363  0.22571  0.09103  1.55865  0.184541  0.008133 -0.000534    22.689
   0.79855  0.21092  0.08902  1.56434  0.173723  0.007425 -0.000538    23.396
   0.81339  0.19626  0.08678  1.57075  0.162953  0.006681 -0.000543    24.390
   0.82811  0.18175  0.08429  1.57805  0.152236  0.005894 -0.000548    25.830
   0.84271  0.16741  0.08155  1.58659  0.141565  0.005043 -0.000554    28.074
   0.85717  0.15327  0.07856  1.59705  0.130917  0.004086 -0.000561    32.040
   0.87144  0.13937  0.07533  1.61105  0.120229  0.002918 -0.000571    41.201
   0.88548  0.12576  0.07185  1.63582  0.109106  0.000911 -0.004963   119.807
   0.89921  0.11254  0.06815  1.63660  0.099689  0.000874 -0.005177   114.103
   0.91255  0.09978  0.06426  1.63743  0.090385  0.000838 -0.005404   107.905
   0.92536  0.08762  0.06020  1.63833  0.081324  0.000803 -0.005643   101.291
   0.93750  0.07622  0.05606  1.63927  0.072610  0.000770 -0.005886    94.239
   0.94879  0.06572  0.05190  1.64026  0.064393  0.000741 -0.006125    86.873
   0.95911  0.05625  0.04782  1.64124  0.056782  0.000716 -0.006349    79.301
   0.96837  0.04786  0.04389  1.64219  0.049868  0.000695 -0.006547    71.720
   0.97657  0.04055  0.04017  1.64309  0.043667  0.000679 -0.006713    64.296
   0.98379  0.03423  0.03668  1.64391  0.038161  0.000667 -0.006846    57.201
   0.99012  0.02879  0.03343  1.64464  0.033282  0.000659 -0.006947    50.527
   0.99570  0.02411  0.03040  1.64530  0.028967  0.000653 -0.007022    44.358
   1.00063  0.02008  0.02756  1.64588  0.025132  0.000649 -0.007079    38.698
   1.00502  0.01660  0.02489  1.64641  0.021718  0.000647 -0.007125    33.555
   1.00896  0.01357  0.02236  1.64692  0.018666  0.000646 -0.007167    28.907
   1.01253  0.01095  0.01995  1.64746  0.015932  0.000644 -0.007216    24.724
   1.01577  0.00867  0.01764  1.64808  0.013468  0.000643 -0.007279    20.956
   1.01874  0.00671  0.01541  1.64890  0.011255  0.000640 -0.007370    17.590
   1.02149  0.00502  0.01324  1.65012  0.009282  0.000635 -0.007511    14.616
   1.02404  0.00360  0.01113  1.65204  0.007519  0.000627 -0.007733    11.984
   1.02642  0.00242  0.00906  1.65524  0.005977  0.000615 -0.008096     9.712
   1.02866  0.00148  0.00703  1.66061  0.004639  0.000598 -0.008722     7.760
   1.03077  0.00077  0.00504  1.66976  0.003516  0.000573 -0.009874     6.141
   1.03277  0.00029  0.00309  1.68519  0.002605  0.000538 -0.010411     4.843
   1.03468  0.00004  0.00120  1.70908  0.001911  0.000494 -0.000853     3.867
   1.03651  0.00001 -0.00064  1.74225  0.001402  0.000441  0.029100     3.180
   1.03838  0.00020 -0.00249  1.78008  0.001042  0.000381  0.080081     2.732
   1.04030  0.00065 -0.00436  1.79948  0.000816  0.000331  0.139919     2.468
   1.04230  0.00137 -0.00623  1.77545  0.000691  0.000298  0.189156     2.319
   1.04439  0.00239 -0.00805  1.70054  0.000637  0.000283  0.209464     2.252
   1.04657  0.00369 -0.00980  1.58790  0.000614  0.000279  0.211947     2.202
   1.04888  0.00527 -0.01148  1.44902  0.000624  0.000286  0.193186     2.185
   1.05132  0.00712 -0.01307  1.30243  0.000649  0.000299  0.169214     2.170
   1.05393  0.00925 -0.01459  1.15678  0.000691  0.000318  0.140419     2.175
   1.05675  0.01167 -0.01603  1.01823  0.000732  0.000338  0.118135     2.162
   1.05979  0.01438 -0.01741  0.88529  0.000797  0.000367  0.093239     2.175
   1.06312  0.01744 -0.01873  0.76487  0.000857  0.000393  0.074715     2.178
   1.06679  0.02087 -0.02000  0.65046  0.000922  0.000425  0.059374     2.172
   1.07086  0.02476 -0.02123  0.54312  0.001013  0.000463  0.044429     2.189
   1.07542  0.02916 -0.02242  0.44564  0.001091  0.000496  0.033610     2.198
   1.08058  0.03419 -0.02357  0.35165  0.001173  0.000535  0.024719     2.195
   1.08647  0.03998 -0.02467  0.26090  0.001292  0.000587  0.016601     2.199
   1.09325  0.04667 -0.02572  0.17752  0.001413  0.000635  0.010083     2.225
   1.10108  0.05445 -0.02670  0.09687  0.001500  0.000678  0.005241     2.213
   1.11013  0.06345 -0.02758  0.02156  0.001774  0.000796  0.000972     2.230
   1.12048  0.07377 -0.02833 -0.04779  0.001774  0.000796  0.002155     2.230
   1.13215  0.08543 -0.02891 -0.11488  0.001983  0.000880  0.004539     2.253
   1.14504  0.09832 -0.02929 -0.17383  0.002170  0.000966  0.006304     2.247
   1.15896  0.11223 -0.02947 -0.22727  0.002340  0.001037  0.007577     2.257
   1.17368  0.12696 -0.02945 -0.27461  0.002519  0.001112  0.008447     2.264
   1.18901  0.14228 -0.02924 -0.31682  0.002685  0.001184  0.009115     2.268
   1.20480  0.15806 -0.02887 -0.35403  0.002864  0.001258  0.009462     2.277
   1.22092  0.17418 -0.02837 -0.38707  0.003030  0.001329  0.009753     2.280
   1.23731  0.19056 -0.02776 -0.41737  0.003173  0.001392  0.010050     2.280
   1.25391  0.20714 -0.02707 -0.44431  0.003343  0.001460  0.010050     2.291
   1.27067  0.22389 -0.02630 -0.46908  0.003479  0.001520  0.010214     2.289
   1.28758  0.24078 -0.02549 -0.49184  0.003622  0.001580  0.010248     2.293
   1.30460  0.25777 -0.02465 -0.51304  0.003750  0.001635  0.010323     2.293
   1.32169  0.27484 -0.02379 -0.53276  0.003878  0.001689  0.010345     2.295
   1.33881  0.29194 -0.02292 -0.55153  0.003983  0.001737  0.010449     2.293
   1.35590  0.30901 -0.02207 -0.56917  0.004094  0.001784  0.010478     2.294
   1.37294  0.32603 -0.02124 -0.58601  0.004189  0.001827  0.010557     2.293
   1.38994  0.34301 -0.02043 -0.60227  0.004273  0.001865  0.010662     2.290
   1.40689  0.35994 -0.01967 -0.61818  0.004343  0.001899  0.010808     2.286
   1.42382  0.37686 -0.01894 -0.63374  0.004408  0.001930  0.010944     2.284
   1.44075  0.39378 -0.01827 -0.64963  0.004440  0.001953  0.011238     2.274
   1.45775  0.41076 -0.01762 -0.66591  0.004461  0.001969  0.011561     2.265
   1.47481  0.42781 -0.01697 -0.68181  0.004505  0.001989  0.011717     2.265
   1.49192  0.44491 -0.01629 -0.69703  0.004567  0.002012  0.011769     2.270
   1.50907  0.46204 -0.01560 -0.71160  0.004632  0.002037  0.011792     2.275
   1.52625  0.47921 -0.01490 -0.72579  0.004690  0.002060  0.011861     2.276
   1.54344  0.49639 -0.01420 -0.73967  0.004743  0.002083  0.011945     2.277
   1.56064  0.51357 -0.01350 -0.75324  0.004794  0.002105  0.012032     2.277
   1.57783  0.53074 -0.01280 -0.76663  0.004838  0.002126  0.012146     2.276
   1.59499  0.54790 -0.01211 -0.77985  0.004879  0.002145  0.012269     2.275
   1.61214  0.56503 -0.01143 -0.79296  0.004915  0.002163  0.012404     2.273
   1.62928  0.58215 -0.01076 -0.80622  0.004937  0.002177  0.012610     2.268
   1.64639  0.59926 -0.01011 -0.81937  0.004963  0.002190  0.012778     2.266
   1.66350  0.61635 -0.00947 -0.83264  0.004979  0.002201  0.012988     2.262
   1.68058  0.63342 -0.00885 -0.84605  0.004989  0.002210  0.013223     2.258
   1.69766  0.65049 -0.00825 -0.85964  0.004994  0.002217  0.013479     2.253
   1.71473  0.66755 -0.00768 -0.87345  0.004993  0.002221  0.013759     2.248
   1.73178  0.68459 -0.00712 -0.88759  0.004984  0.002223  0.014079     2.242
   1.74883  0.70164 -0.00659 -0.90189  0.004977  0.002224  0.014383     2.238
   1.76588  0.71867 -0.00608 -0.91684  0.004950  0.002219  0.014807     2.230
   1.78292  0.73570 -0.00560 -0.93205  0.004928  0.002215  0.015189     2.225
   1.79995  0.75273 -0.00514 -0.94796  0.004890  0.002206  0.015678     2.217
   1.81698  0.76976 -0.00471 -0.96430  0.004854  0.002195  0.016152     2.211
   1.83401  0.78678 -0.00431 -0.98157  0.004801  0.002180  0.016759     2.202
   1.85104  0.80381 -0.00393 -0.99951  0.004747  0.002163  0.017372     2.195
   1.86807  0.82084 -0.00357 -1.01848  0.004681  0.002142  0.018094     2.186
   1.88510  0.83786 -0.00324 -1.03859  0.004606  0.002117  0.018910     2.176
   1.90213  0.85489 -0.00294 -1.06006  0.004519  0.002087  0.019849     2.165
   1.91914  0.87190 -0.00266 -1.08314  0.004421  0.002053  0.020936     2.154
   1.93613  0.88889 -0.00241 -1.10815  0.004310  0.002013  0.022207     2.141
   1.95305  0.90581 -0.00218 -1.13566  0.004180  0.001966  0.023767     2.126
   1.96983  0.92258 -0.00197 -1.16600  0.004034  0.001912  0.025631     2.110
   1.98627  0.93902 -0.00179 -1.19999  0.003863  0.001848  0.028003     2.091
   2.00209  0.95483 -0.00163 -1.23827  0.003664  0.001773  0.031057     2.067
   2.01678  0.96953 -0.00150 -1.28154  0.003433  0.001685  0.035129     2.037
   2.02984  0.98258 -0.00139 -1.33142  0.003156  0.001580  0.040989     1.997
   2.04093  0.99368 -0.00131 -1.38898  0.002845  0.001460  0.049212     1.949
   2.04725  1.00000 -0.00126 -1.46273  0.002331  0.001277  0.069080     1.826
   2.04725  1.00010 -0.00001  1.46273  0.691227  0.035939  0.000000    19.233
   2.05356  1.00637 -0.00073  1.46195  0.692256  0.036345  0.000000    19.047
   2.06096  1.01375 -0.00122  1.46097  0.693101  0.036862  0.000000    18.803
   2.06964  1.02242 -0.00154  1.45980  0.693934  0.037473  0.000000    18.518
   2.07981  1.03260 -0.00166  1.45844  0.694701  0.038195  0.000000    18.189
   2.09174  1.04453 -0.00152  1.45682  0.695352  0.039048  0.000000    17.807
   2.10574  1.05851 -0.00103  1.45492  0.695811  0.040060  0.000000    17.369
   2.12215  1.07489 -0.00007  1.45268  0.695973  0.041258  0.000000    16.869
   2.14139  1.09407  0.00148  1.45004  0.695693  0.042680  0.000000    16.300
   2.16396  1.11652  0.00382  1.44691  0.694774  0.044369  0.000000    15.659
   2.19042  1.14277  0.00717  1.44321  0.692949  0.046379  0.000000    14.941
   2.22145  1.17345  0.01182  1.43882  0.689853  0.048774  0.000000    14.144
   2.25784  1.20929  0.01811  1.43361  0.684989  0.051635  0.000000    13.266
   2.30052  1.25114  0.02648  1.42740  0.677678  0.055061  0.000000    12.308
   2.35057  1.29998  0.03745  1.41995  0.666973  0.059176  0.000000    11.271
   2.40926  1.35692  0.05165  1.41099  0.651540  0.064140  0.000000    10.158
   2.47809  1.42329  0.06986  1.40007  0.629440  0.070168  0.000000     8.970
   2.55880  1.50062  0.09300  1.38657  0.597736  0.077560  0.000000     7.707
   2.65345  1.59065  0.12220  1.36942  0.551684  0.086788  0.000000     6.357
   2.76445  1.69545  0.15876  1.34628  0.482493  0.098822  0.000000     4.882
   2.89461  1.81740  0.20427  1.30726  0.375081  0.118000  0.000000     3.179
   3.04725  1.95927  0.26060  1.61070  0.054751  0.049727  0.000000     1.101
