#    s        x        y     Ue/Vinf    Dstar     Theta      Cf       H
   0.00000  1.00000  0.00126  1.28726  0.457705  0.031449 -0.000118    14.554
   0.00630  0.99392  0.00292  1.28780  0.455140  0.031232 -0.000119    14.573
   0.01727  0.98333  0.00577  1.28874  0.450666  0.030854 -0.000121    14.607
   0.03004  0.97098  0.00904  1.28986  0.445302  0.030414 -0.000123    14.642
   0.04430  0.95718  0.01262  1.29112  0.439201  0.029922 -0.000125    14.678
   0.05958  0.94237  0.01638  1.29250  0.432569  0.029394 -0.000127    14.716
   0.07546  0.92696  0.02021  1.29396  0.425595  0.028844 -0.000130    14.755
   0.09164  0.91123  0.02403  1.29548  0.418413  0.028282 -0.000132    14.794
   0.10799  0.89533  0.02780  1.29705  0.411103  0.027712 -0.000135    14.835
   0.12441  0.87933  0.03149  1.29867  0.403704  0.027137 -0.000138    14.876
   0.14087  0.86327  0.03511  1.30033  0.396247  0.026559 -0.000141    14.920
   0.15734  0.84718  0.03864  1.30203  0.388740  0.025976 -0.000145    14.965
   0.17383  0.83106  0.04208  1.30379  0.381196  0.025391 -0.000148    15.013
   0.19032  0.81492  0.04544  1.30559  0.373618  0.024801 -0.000152    15.064
   0.20680  0.79875  0.04870  1.30744  0.366012  0.024208 -0.000156    15.119
   0.22329  0.78258  0.05188  1.30935  0.358379  0.023612 -0.000160    15.178
   0.23978  0.76638  0.05496  1.31131  0.350722  0.023011 -0.000164    15.242
   0.25626  0.75017  0.05796  1.31334  0.343048  0.022405 -0.000169    15.311
   0.27274  0.73395  0.06086  1.31543  0.335353  0.021795 -0.000174    15.387
   0.28921  0.71772  0.06368  1.31760  0.327645  0.021180 -0.000179    15.470
   0.30568  0.70148  0.06640  1.31984  0.319920  0.020559 -0.000185    15.561
   0.32214  0.68523  0.06902  1.32217  0.312185  0.019932 -0.000191    15.662
   0.33859  0.66898  0.07155  1.32458  0.304436  0.019300 -0.000197    15.774
   0.35503  0.65272  0.07398  1.32709  0.296681  0.018660 -0.000205    15.900
   0.37146  0.63645  0.07632  1.32970  0.288916  0.018012 -0.000212    16.040
   0.38788  0.62019  0.07855  1.33243  0.281143  0.017357 -0.000221    16.198
   0.40429  0.60392  0.08069  1.33528  0.273369  0.016693 -0.000230    16.376
   0.42068  0.58766  0.08272  1.33827  0.265586  0.016019 -0.000240    16.580
   0.43705  0.57140  0.08465  1.34140  0.257805  0.015334 -0.000251    16.813
   0.45341  0.55514  0.08647  1.34473  0.250014  0.014632 -0.000263    17.086
   0.46975  0.53889  0.08818  1.34828  0.242214  0.013909 -0.000277    17.415
   0.48606  0.52265  0.08978  1.35205  0.234416  0.013169 -0.000293    17.801
   0.50236  0.50642  0.09127  1.35606  0.226613  0.012412 -0.000312    18.258
   0.51863  0.49021  0.09264  1.36036  0.218809  0.011633 -0.000333    18.809
   0.53487  0.47402  0.09390  1.36497  0.211003  0.010830 -0.000359    19.483
   0.55108  0.45785  0.09503  1.36997  0.203188  0.009998 -0.000389    20.322
   0.56725  0.44172  0.09603  1.37543  0.195368  0.009131 -0.000416    21.396
   0.58335  0.42564  0.09690  1.38146  0.187541  0.008220 -0.000420    22.815
   0.59935  0.40965  0.09765  1.38819  0.179710  0.007252 -0.000424    24.780
   0.61519  0.39382  0.09824  1.39578  0.171876  0.006220 -0.000429    27.634
   0.63085  0.37817  0.09865  1.40473  0.164069  0.005071 -0.000434    32.354
   0.64639  0.36263  0.09885  1.41618  0.156165  0.003686 -0.000441    42.367
   0.66187  0.34716  0.09884  1.43439  0.147741  0.001513 -0.002622    97.645
   0.67728  0.33174  0.09863  1.43472  0.141133  0.001489 -0.002666    94.785
   0.69264  0.31639  0.09821  1.43506  0.134502  0.001465 -0.002710    91.785
   0.70795  0.30109  0.09757  1.43542  0.127875  0.001442 -0.002755    88.671
   0.72321  0.28586  0.09672  1.43580  0.121265  0.001419 -0.002801    85.455
   0.73841  0.27069  0.09564  1.43620  0.114692  0.001396 -0.002849    82.156
   0.75355  0.25561  0.09433  1.43662  0.108158  0.001373 -0.002898    78.769
   0.76863  0.24061  0.09280  1.43707  0.101674  0.001350 -0.002949    75.302
   0.78363  0.22571  0.09103  1.43754  0.095250  0.001327 -0.003002    71.758
   0.79855  0.21092  0.08902  1.43806  0.088891  0.001305 -0.003057    68.137
   0.81339  0.19626  0.08678  1.43861  0.082609  0.001282 -0.003114    64.447
   0.82811  0.18175  0.08429  1.43920  0.076405  0.001259 -0.003173    60.680
   0.84271  0.16741  0.08155  1.43984  0.070294  0.001237 -0.003235    56.846
   0.85717  0.15327  0.07856  1.44054  0.064291  0.001214 -0.003299    52.953
   0.87144  0.13937  0.07533  1.44130  0.058399  0.001192 -0.003366    48.998
   0.88548  0.12576  0.07185  1.44214  0.052653  0.001170 -0.003435    45.010
   0.89921  0.11254  0.06815  1.44306  0.047068  0.001148 -0.003508    40.998
   0.91255  0.09978  0.06426  1.44408  0.041692  0.001127 -0.003583    37.008
   0.92536  0.08762  0.06020  1.44520  0.036569  0.001105 -0.003663    33.082
   0.93750  0.07622  0.05606  1.44646  0.031757  0.001085 -0.003747    29.281
   0.94879  0.06572  0.05190  1.44787  0.027327  0.001064 -0.003837    25.686
   0.95911  0.05625  0.04782  1.44947  0.023318  0.001043 -0.003934    22.351
   0.96837  0.04786  0.04389  1.45130  0.019769  0.001022 -0.004043    19.339
   0.97657  0.04055  0.04017  1.45344  0.016668  0.001000 -0.004167    16.662
   0.98379  0.03423  0.03668  1.45601  0.013990  0.000977 -0.004314    14.317
   0.99012  0.02879  0.03343  1.45915  0.011690  0.000952 -0.004492    12.282
   0.99570  0.02411  0.03040  1.46311  0.009721  0.000924 -0.004717    10.523
   1.00063  0.02008  0.02756  1.46818  0.008039  0.000892 -0.005011     9.009
   1.00502  0.01660  0.02489  1.47478  0.006601  0.000857 -0.005412     7.702
   1.00896  0.01357  0.02236  1.48349  0.005383  0.000817 -0.005985     6.587
   1.01253  0.01095  0.01995  1.49510  0.004347  0.000772 -0.006759     5.630
   1.01577  0.00867  0.01764  1.51068  0.003484  0.000721 -0.006942     4.831
   1.01874  0.00671  0.01541  1.53104  0.002770  0.000665 -0.004229     4.168
   1.02149  0.00502  0.01324  1.55624  0.002193  0.000604  0.004176     3.631
   1.02404  0.00360  0.01113  1.58616  0.001738  0.000539  0.019567     3.224
   1.02642  0.00242  0.00906  1.61761  0.001391  0.000475  0.041638     2.929
   1.02866  0.00148  0.00703  1.64485  0.001129  0.000416  0.069665     2.716
   1.03077  0.00077  0.00504  1.66079  0.000937  0.000365  0.101610     2.563
   1.03277  0.00029  0.00309  1.65851  0.000797  0.000325  0.134296     2.452
   1.03468  0.00004  0.00120  1.63314  0.000701  0.000294  0.160566     2.386
   1.03651  0.00001 -0.00064  1.58506  0.000629  0.000270  0.183609     2.331
   1.03838  0.00020 -0.00249  1.50647  0.000574  0.000252  0.200323     2.280
   1.04030  0.00065 -0.00436  1.39404  0.000544  0.000242  0.200572     2.253
   1.04230  0.00137 -0.00623  1.25361  0.000527  0.000237  0.191601     2.222
   1.04439  0.00239 -0.00805  1.09033  0.000532  0.000241  0.167680     2.205
   1.04657  0.00369 -0.00980  0.92123  0.000554  0.000251  0.136283     2.203
   1.04888  0.00527 -0.01148  0.75627  0.000583  0.000266  0.107165     2.193
   1.05132  0.00712 -0.01307  0.60056  0.000631  0.000287  0.078232     2.199
   1.05393  0.00925 -0.01459  0.46024  0.000682  0.000310  0.055345     2.201
   1.05675  0.01167 -0.01603  0.33281  0.000745  0.000339  0.036641     2.201
   1.05979  0.01438 -0.01741  0.22062  0.000817  0.000367  0.021699     2.224
   1.06312  0.01744 -0.01873  0.11855  0.000874  0.000395  0.011014     2.213
   1.06679  0.02087 -0.02000  0.02839  0.001031  0.000462  0.002203     2.230
   1.07086  0.02476 -0.02123 -0.05242  0.001031  0.000462  0.004069     2.230
   1.07542  0.02916 -0.02242 -0.12897  0.001165  0.000517  0.008657     2.254
   1.08058  0.03419 -0.02357 -0.19670  0.001283  0.000571  0.012069     2.247
   1.08647  0.03998 -0.02467 -0.26017  0.001400  0.000619  0.014444     2.261
   1.09325  0.04667 -0.02572 -0.31852  0.001540  0.000678  0.015917     2.272
   1.10108  0.05445 -0.02670 -0.37257  0.001691  0.000742  0.016838     2.280
   1.11013  0.06345 -0.02758 -0.42265  0.001856  0.000811  0.017243     2.289
   1.12048  0.07377 -0.02833 -0.46837  0.002040  0.000887  0.017222     2.300
   1.13215  0.08543 -0.02891 -0.50978  0.002232  0.000967  0.017008     2.307
   1.14504  0.09832 -0.02929 -0.54617  0.002445  0.001054  0.016432     2.320
   1.15896  0.11223 -0.02947 -0.57813  0.002653  0.001141  0.015941     2.326
   1.17368  0.12696 -0.02945 -0.60598  0.002866  0.001228  0.015345     2.334
   1.18901  0.14228 -0.02924 -0.63007  0.003079  0.001315  0.014741     2.342
   1.20480  0.15806 -0.02887 -0.65104  0.003287  0.001400  0.014186     2.348
   1.22092  0.17418 -0.02837 -0.66945  0.003489  0.001483  0.013673     2.353
   1.23731  0.19056 -0.02776 -0.68576  0.003685  0.001563  0.013205     2.358
   1.25391  0.20714 -0.02707 -0.70044  0.003870  0.001640  0.012805     2.360
   1.27067  0.22389 -0.02630 -0.71365  0.004053  0.001714  0.012414     2.364
   1.28758  0.24078 -0.02549 -0.72576  0.004225  0.001786  0.012090     2.366
   1.30460  0.25777 -0.02465 -0.73687  0.004392  0.001855  0.011784     2.368
   1.32169  0.27484 -0.02379 -0.74733  0.004545  0.001920  0.011558     2.367
   1.33881  0.29194 -0.02292 -0.75727  0.004685  0.001981  0.011381     2.365
   1.35590  0.30901 -0.02207 -0.76669  0.004819  0.002039  0.011219     2.364
   1.37294  0.32603 -0.02124 -0.77583  0.004938  0.002092  0.011118     2.360
   1.38994  0.34301 -0.02043 -0.78476  0.005044  0.002141  0.011057     2.356
   1.40689  0.35994 -0.01967 -0.79372  0.005131  0.002185  0.011071     2.349
   1.42382  0.37686 -0.01894 -0.80277  0.005205  0.002224  0.011126     2.341
   1.44075  0.39378 -0.01827 -0.81223  0.005252  0.002256  0.011283     2.329
   1.45775  0.41076 -0.01762 -0.82224  0.005278  0.002280  0.011518     2.315
   1.47481  0.42781 -0.01697 -0.83189  0.005337  0.002309  0.011558     2.312
   1.49192  0.44491 -0.01629 -0.84116  0.005408  0.002339  0.011526     2.312
   1.50907  0.46204 -0.01560 -0.84999  0.005489  0.002371  0.011443     2.315
   1.52625  0.47921 -0.01490 -0.85845  0.005571  0.002403  0.011350     2.319
   1.54344  0.49639 -0.01420 -0.86668  0.005647  0.002434  0.011288     2.320
   1.56064  0.51357 -0.01350 -0.87461  0.005724  0.002465  0.011216     2.322
   1.57783  0.53074 -0.01280 -0.88241  0.005793  0.002495  0.011182     2.322
   1.59499  0.54790 -0.01211 -0.89008  0.005857  0.002523  0.011164     2.321
   1.61214  0.56503 -0.01143 -0.89774  0.005911  0.002549  0.011181     2.319
   1.62928  0.58215 -0.01076 -0.90531  0.005964  0.002574  0.011197     2.317
   1.64639  0.59926 -0.01011 -0.91295  0.006006  0.002597  0.011254     2.313
   1.66350  0.61635 -0.00947 -0.92061  0.006044  0.002617  0.011318     2.309
   1.68058  0.63342 -0.00885 -0.92840  0.006073  0.002636  0.011414     2.304
   1.69766  0.65049 -0.00825 -0.93635  0.006094  0.002651  0.011537     2.298
   1.71473  0.66755 -0.00768 -0.94440  0.006112  0.002666  0.011663     2.293
   1.73178  0.68459 -0.00712 -0.95274  0.006117  0.002676  0.011837     2.285
   1.74883  0.70164 -0.00659 -0.96121  0.006121  0.002686  0.012004     2.279
   1.76588  0.71867 -0.00608 -0.97005  0.006111  0.002691  0.012229     2.271
   1.78292  0.73570 -0.00560 -0.97917  0.006096  0.002694  0.012468     2.263
   1.79995  0.75273 -0.00514 -0.98864  0.006074  0.002695  0.012732     2.254
   1.81698  0.76976 -0.00471 -0.99853  0.006043  0.002692  0.013035     2.245
   1.83401  0.78678 -0.00431 -1.00891  0.006002  0.002686  0.013381     2.235
   1.85104  0.80381 -0.00393 -1.01977  0.005955  0.002677  0.013756     2.225
   1.86807  0.82084 -0.00357 -1.03129  0.005895  0.002663  0.014195     2.213
   1.88510  0.83786 -0.00324 -1.04352  0.005825  0.002646  0.014691     2.201
   1.90213  0.85489 -0.00294 -1.05664  0.005740  0.002623  0.015272     2.188
   1.91914  0.87190 -0.00266 -1.07073  0.005645  0.002596  0.015929     2.174
   1.93613  0.88889 -0.00241 -1.08595  0.005536  0.002564  0.016689     2.159
   1.95305  0.90581 -0.00218 -1.10271  0.005404  0.002523  0.017621     2.142
   1.96983  0.92258 -0.00197 -1.12118  0.005253  0.002475  0.018736     2.122
   1.98627  0.93902 -0.00179 -1.14173  0.005076  0.002417  0.020113     2.100
   2.00209  0.95483 -0.00163 -1.16474  0.004868  0.002348  0.021861     2.074
   2.01678  0.96953 -0.00150 -1.19024  0.004631  0.002266  0.024063     2.044
   2.02984  0.98258 -0.00139 -1.21906  0.004345  0.002168  0.027099     2.004
   2.04093  0.99368 -0.00131 -1.25083  0.004032  0.002057  0.031000     1.960
   2.04725  1.00000 -0.00126 -1.28726  0.003565  0.001903  0.038446     1.874
   2.04725  1.00010 -0.00001  1.28726  0.463745  0.033352  0.000000    13.905
   2.05356  1.00636 -0.00077  1.28627  0.464436  0.033759  0.000000    13.758
   2.06096  1.01373 -0.00141  1.28502  0.465003  0.034277  0.000000    13.566
   2.06964  1.02239 -0.00201  1.28355  0.465566  0.034888  0.000000    13.345
   2.07981  1.03255 -0.00253  1.28183  0.466092  0.035611  0.000000    13.089
   2.09174  1.04448 -0.00296  1.27979  0.466546  0.036465  0.000000    12.794
   2.10574  1.05847 -0.00325  1.27740  0.466876  0.037476  0.000000    12.458
   2.12215  1.07487 -0.00335  1.27459  0.467011  0.038675  0.000000    12.075
   2.14139  1.09412 -0.00317  1.27127  0.466853  0.040098  0.000000    11.643
   2.16396  1.11668 -0.00261  1.26735  0.466268  0.041789  0.000000    11.158
   2.19042  1.14312 -0.00156  1.26273  0.465075  0.043803  0.000000    10.618
   2.22145  1.17410  0.00017  1.25727  0.463028  0.046206  0.000000    10.021
   2.25784  1.21040  0.00276  1.25079  0.459796  0.049084  0.000000     9.368
   2.30052  1.25292  0.00649  1.24309  0.454933  0.052539  0.000000     8.659
   2.35057  1.30270  0.01166  1.23389  0.447831  0.056707  0.000000     7.897
   2.40926  1.36097  0.01868  1.22283  0.437654  0.061767  0.000000     7.086
   2.47809  1.42916  0.02801  1.20939  0.423234  0.067966  0.000000     6.227
   2.55880  1.50894  0.04025  1.19278  0.402892  0.075685  0.000000     5.323
   2.65345  1.60225  0.05609  1.17140  0.374140  0.085659  0.000000     4.368
   2.76445  1.71138  0.07638  1.14047  0.332981  0.100166  0.000000     3.324
   2.89461  1.83897  0.10211  1.11822  0.268932  0.110279  0.000000     2.439
   3.04725  1.98814  0.13450  1.27286  0.091143  0.066501  0.000000     1.371
