#    s        x        y     Ue/Vinf    Dstar     Theta      Cf       H
   0.00000  1.00000  0.00126  1.00446  0.052709  0.011307 -0.000092     4.662
   0.00630  0.99392  0.00292  1.00799  0.052026  0.011045 -0.000097     4.710
   0.01727  0.98333  0.00577  1.01436  0.050790  0.010586 -0.000105     4.798
   0.03004  0.97098  0.00904  1.02219  0.049402  0.010042 -0.000115     4.920
   0.04430  0.95718  0.01262  1.03153  0.047932  0.009423 -0.000126     5.087
   0.05958  0.94237  0.01638  1.04229  0.046453  0.008746 -0.000139     5.311
   0.07546  0.92696  0.02021  1.05438  0.045016  0.008026 -0.000153     5.609
   0.09164  0.91123  0.02403  1.06778  0.043647  0.007274 -0.000167     6.001
   0.10799  0.89533  0.02780  1.08257  0.042352  0.006493 -0.000184     6.522
   0.12441  0.87933  0.03149  1.09909  0.041111  0.005678 -0.000206     7.241
   0.14087  0.86327  0.03511  1.11767  0.039902  0.004822 -0.000239     8.275
   0.15734  0.84718  0.03864  1.13879  0.038681  0.003921 -0.000285     9.865
   0.17383  0.83106  0.04208  1.16378  0.037360  0.002940 -0.000298    12.706
   0.19032  0.81492  0.04544  1.18307  0.036092  0.002253 -0.000503    16.021
   0.20680  0.79875  0.04870  1.18347  0.035097  0.002242 -0.000506    15.654
   0.22329  0.78258  0.05188  1.18384  0.033952  0.002233 -0.000510    15.205
   0.23978  0.76638  0.05496  1.18419  0.032707  0.002225 -0.000513    14.702
   0.25626  0.75017  0.05796  1.18455  0.031392  0.002217 -0.000516    14.161
   0.27274  0.73395  0.06086  1.18491  0.030028  0.002209 -0.000520    13.593
   0.28921  0.71772  0.06368  1.18529  0.028629  0.002201 -0.000523    13.006
   0.30568  0.70148  0.06640  1.18571  0.027207  0.002193 -0.000528    12.407
   0.32214  0.68523  0.06902  1.18616  0.025773  0.002184 -0.000532    11.800
   0.33859  0.66898  0.07155  1.18668  0.024336  0.002175 -0.000538    11.191
   0.35503  0.65272  0.07398  1.18726  0.022903  0.002164 -0.000544    10.584
   0.37146  0.63645  0.07632  1.18794  0.021482  0.002152 -0.000552     9.982
   0.38788  0.62019  0.07855  1.18873  0.020080  0.002139 -0.000561     9.389
   0.40429  0.60392  0.08069  1.18966  0.018704  0.002123 -0.000571     8.809
   0.42068  0.58766  0.08272  1.19077  0.017358  0.002106 -0.000584     8.242
   0.43705  0.57140  0.08465  1.19208  0.016052  0.002086 -0.000599     7.694
   0.45341  0.55514  0.08647  1.19366  0.014788  0.002064 -0.000618     7.164
   0.46975  0.53889  0.08818  1.19555  0.013574  0.002039 -0.000642     6.658
   0.48606  0.52265  0.08978  1.19783  0.012414  0.002010 -0.000671     6.177
   0.50236  0.50642  0.09127  1.20058  0.011315  0.001977 -0.000703     5.722
   0.51863  0.49021  0.09264  1.20390  0.010281  0.001941 -0.000723     5.297
   0.53487  0.47402  0.09390  1.20788  0.009315  0.001900 -0.000714     4.903
   0.55108  0.45785  0.09503  1.21260  0.008417  0.001854 -0.000636     4.539
   0.56725  0.44172  0.09603  1.21809  0.007590  0.001805 -0.000447     4.205
   0.58335  0.42564  0.09690  1.22428  0.006831  0.001752 -0.000106     3.899
   0.59935  0.40965  0.09765  1.23134  0.006139  0.001694  0.000410     3.624
   0.61519  0.39382  0.09824  1.23936  0.005502  0.001631  0.001137     3.374
   0.63085  0.37817  0.09865  1.24792  0.004974  0.001565  0.001964     3.178
   0.64639  0.36263  0.09885  1.25654  0.004541  0.001499  0.002827     3.029
   0.66187  0.34716  0.09884  1.26480  0.004183  0.001436  0.003693     2.913
   0.67728  0.33174  0.09863  1.27236  0.003884  0.001375  0.004536     2.824
   0.69264  0.31639  0.09821  1.27906  0.003631  0.001318  0.005351     2.754
   0.70795  0.30109  0.09757  1.28479  0.003411  0.001264  0.006137     2.698
   0.72321  0.28586  0.09672  1.28946  0.003220  0.001213  0.006886     2.654
   0.73841  0.27069  0.09564  1.29312  0.003047  0.001165  0.007622     2.617
   0.75355  0.25561  0.09433  1.29568  0.002892  0.001118  0.008330     2.587
   0.76863  0.24061  0.09280  1.29720  0.002749  0.001073  0.009030     2.561
   0.78363  0.22571  0.09103  1.29763  0.002615  0.001030  0.009726     2.539
   0.79855  0.21092  0.08902  1.29694  0.002490  0.000988  0.010419     2.521
   0.81339  0.19626  0.08678  1.29514  0.002370  0.000946  0.011127     2.504
   0.82811  0.18175  0.08429  1.29211  0.002255  0.000906  0.011839     2.490
   0.84271  0.16741  0.08155  1.28786  0.002143  0.000865  0.012585     2.478
   0.85717  0.15327  0.07856  1.28221  0.002036  0.000825  0.013334     2.467
   0.87144  0.13937  0.07533  1.27521  0.001928  0.000785  0.014152     2.457
   0.88548  0.12576  0.07185  1.26659  0.001823  0.000745  0.015007     2.448
   0.89921  0.11254  0.06815  1.25626  0.001719  0.000704  0.015900     2.441
   0.91255  0.09978  0.06426  1.24419  0.001615  0.000664  0.016888     2.434
   0.92536  0.08762  0.06020  1.23017  0.001512  0.000623  0.017972     2.426
   0.93750  0.07622  0.05606  1.21408  0.001410  0.000583  0.019148     2.420
   0.94879  0.06572  0.05190  1.19592  0.001311  0.000543  0.020411     2.413
   0.95911  0.05625  0.04782  1.17582  0.001215  0.000505  0.021800     2.406
   0.96837  0.04786  0.04389  1.15380  0.001125  0.000469  0.023266     2.400
   0.97657  0.04055  0.04017  1.12998  0.001039  0.000434  0.024864     2.392
   0.98379  0.03423  0.03668  1.10418  0.000960  0.000403  0.026536     2.383
   0.99012  0.02879  0.03343  1.07635  0.000887  0.000373  0.028158     2.377
   0.99570  0.02411  0.03040  1.04643  0.000817  0.000345  0.030088     2.365
   1.00063  0.02008  0.02756  1.01337  0.000755  0.000320  0.031739     2.358
   1.00502  0.01660  0.02489  0.97743  0.000695  0.000296  0.033599     2.347
   1.00896  0.01357  0.02236  0.93722  0.000639  0.000274  0.035438     2.335
   1.01253  0.01095  0.01995  0.89193  0.000589  0.000253  0.036944     2.326
   1.01577  0.00867  0.01764  0.84103  0.000541  0.000234  0.038310     2.315
   1.01874  0.00671  0.01541  0.78256  0.000495  0.000215  0.039519     2.299
   1.02149  0.00502  0.01324  0.71477  0.000456  0.000199  0.039575     2.290
   1.02404  0.00360  0.01113  0.63692  0.000418  0.000184  0.038938     2.276
   1.02642  0.00242  0.00906  0.54713  0.000385  0.000170  0.036556     2.269
   1.02866  0.00148  0.00703  0.44299  0.000353  0.000157  0.032815     2.249
   1.03077  0.00077  0.00504  0.32351  0.000332  0.000148  0.025656     2.243
   1.03277  0.00029  0.00309  0.19240  0.000312  0.000139  0.016340     2.237
   1.03468  0.00004  0.00120  0.04872  0.000294  0.000132  0.004407     2.230
   1.03651  0.00001 -0.00064 -0.09965  0.000294  0.000132  0.009025     2.230
   1.03838  0.00020 -0.00249 -0.25841  0.000284  0.000128  0.024420     2.223
   1.04030  0.00065 -0.00436 -0.42295  0.000288  0.000129  0.038803     2.238
   1.04230  0.00137 -0.00623 -0.57762  0.000302  0.000134  0.050243     2.246
   1.04439  0.00239 -0.00805 -0.71723  0.000322  0.000142  0.057939     2.258
   1.04657  0.00369 -0.00980 -0.83296  0.000354  0.000155  0.059593     2.286
   1.04888  0.00527 -0.01148 -0.92308  0.000395  0.000171  0.057885     2.310
   1.05132  0.00712 -0.01307 -0.99230  0.000442  0.000189  0.054335     2.333
   1.05393  0.00925 -0.01459 -1.04380  0.000498  0.000211  0.049349     2.362
   1.05675  0.01167 -0.01603 -1.08133  0.000561  0.000235  0.044191     2.390
   1.05979  0.01438 -0.01741 -1.10799  0.000631  0.000261  0.039046     2.419
   1.06312  0.01744 -0.01873 -1.12700  0.000707  0.000289  0.034591     2.444
   1.06679  0.02087 -0.02000 -1.13950  0.000793  0.000320  0.030191     2.475
   1.07086  0.02476 -0.02123 -1.14761  0.000884  0.000354  0.026589     2.499
   1.07542  0.02916 -0.02242 -1.15185  0.000987  0.000390  0.023173     2.528
   1.08058  0.03419 -0.02357 -1.15303  0.001100  0.000431  0.020180     2.555
   1.08647  0.03998 -0.02467 -1.15176  0.001226  0.000475  0.017556     2.582
   1.09325  0.04667 -0.02572 -1.14829  0.001367  0.000523  0.015183     2.611
   1.10108  0.05445 -0.02670 -1.14287  0.001525  0.000577  0.013068     2.642
   1.11013  0.06345 -0.02758 -1.13588  0.001702  0.000637  0.011240     2.671
   1.12048  0.07377 -0.02833 -1.12757  0.001897  0.000702  0.009634     2.702
   1.13215  0.08543 -0.02891 -1.11826  0.002112  0.000772  0.008246     2.735
   1.14504  0.09832 -0.02929 -1.10843  0.002340  0.000846  0.007089     2.766
   1.15896  0.11223 -0.02947 -1.09839  0.002579  0.000922  0.006116     2.797
   1.17368  0.12696 -0.02945 -1.08845  0.002825  0.000999  0.005306     2.828
   1.18901  0.14228 -0.02924 -1.07887  0.003073  0.001076  0.004648     2.857
   1.20480  0.15806 -0.02887 -1.06974  0.003321  0.001152  0.004107     2.883
   1.22092  0.17418 -0.02837 -1.06109  0.003568  0.001227  0.003653     2.909
   1.23731  0.19056 -0.02776 -1.05301  0.003808  0.001300  0.003292     2.931
   1.25391  0.20714 -0.02707 -1.04545  0.004043  0.001371  0.002993     2.949
   1.27067  0.22389 -0.02630 -1.03840  0.004270  0.001440  0.002746     2.965
   1.28758  0.24078 -0.02549 -1.03186  0.004486  0.001507  0.002554     2.976
   1.30460  0.25777 -0.02465 -1.02581  0.004691  0.001572  0.002401     2.984
   1.32169  0.27484 -0.02379 -1.02024  0.004881  0.001635  0.002287     2.986
   1.33881  0.29194 -0.02292 -1.01517  0.005054  0.001695  0.002210     2.982
   1.35590  0.30901 -0.02207 -1.01057  0.005210  0.001752  0.002162     2.974
   1.37294  0.32603 -0.02124 -1.00646  0.005344  0.001806  0.002147     2.959
   1.38994  0.34301 -0.02043 -1.00284  0.005456  0.001857  0.002162     2.939
   1.40689  0.35994 -0.01967 -0.99974  0.005543  0.001904  0.002208     2.911
   1.42382  0.37686 -0.01894 -0.99716  0.005605  0.001947  0.002285     2.878
   1.44075  0.39378 -0.01827 -0.99522  0.005633  0.001986  0.002406     2.837
   1.45775  0.41076 -0.01762 -0.99395  0.005631  0.002020  0.002566     2.788
   1.47481  0.42781 -0.01697 -0.99268  0.005667  0.002055  0.002648     2.758
   1.49192  0.44491 -0.01629 -0.99143  0.005724  0.002090  0.002684     2.738
   1.50907  0.46204 -0.01560 -0.99015  0.005798  0.002126  0.002686     2.727
   1.52625  0.47921 -0.01490 -0.98886  0.005884  0.002163  0.002665     2.720
   1.54344  0.49639 -0.01420 -0.98757  0.005977  0.002200  0.002632     2.717
   1.56064  0.51357 -0.01350 -0.98626  0.006076  0.002237  0.002586     2.716
   1.57783  0.53074 -0.01280 -0.98497  0.006176  0.002273  0.002540     2.717
   1.59499  0.54790 -0.01211 -0.98371  0.006275  0.002310  0.002497     2.717
   1.61214  0.56503 -0.01143 -0.98248  0.006373  0.002345  0.002452     2.718
   1.62928  0.58215 -0.01076 -0.98130  0.006469  0.002380  0.002413     2.718
   1.64639  0.59926 -0.01011 -0.98019  0.006560  0.002414  0.002379     2.717
   1.66350  0.61635 -0.00947 -0.97913  0.006647  0.002448  0.002349     2.716
   1.68058  0.63342 -0.00885 -0.97816  0.006727  0.002480  0.002328     2.712
   1.69766  0.65049 -0.00825 -0.97727  0.006803  0.002512  0.002312     2.708
   1.71473  0.66755 -0.00768 -0.97648  0.006871  0.002542  0.002302     2.703
   1.73178  0.68459 -0.00712 -0.97578  0.006933  0.002571  0.002299     2.696
   1.74883  0.70164 -0.00659 -0.97519  0.006988  0.002599  0.002301     2.689
   1.76588  0.71867 -0.00608 -0.97471  0.007034  0.002626  0.002311     2.679
   1.78292  0.73570 -0.00560 -0.97435  0.007075  0.002651  0.002327     2.669
   1.79995  0.75273 -0.00514 -0.97412  0.007107  0.002675  0.002349     2.657
   1.81698  0.76976 -0.00471 -0.97401  0.007132  0.002698  0.002376     2.644
   1.83401  0.78678 -0.00431 -0.97406  0.007148  0.002719  0.002411     2.629
   1.85104  0.80381 -0.00393 -0.97425  0.007157  0.002738  0.002453     2.614
   1.86807  0.82084 -0.00357 -0.97462  0.007156  0.002755  0.002502     2.597
   1.88510  0.83786 -0.00324 -0.97516  0.007147  0.002771  0.002558     2.579
   1.90213  0.85489 -0.00294 -0.97594  0.007125  0.002784  0.002627     2.559
   1.91914  0.87190 -0.00266 -0.97690  0.007095  0.002795  0.002701     2.538
   1.93613  0.88889 -0.00241 -0.97815  0.007053  0.002803  0.002789     2.516
   1.95305  0.90581 -0.00218 -0.97970  0.006995  0.002808  0.002893     2.491
   1.96983  0.92258 -0.00197 -0.98162  0.006921  0.002810  0.003015     2.463
   1.98627  0.93902 -0.00179 -0.98398  0.006828  0.002806  0.003160     2.433
   2.00209  0.95483 -0.00163 -0.98684  0.006710  0.002796  0.003337     2.400
   2.01678  0.96953 -0.00150 -0.99024  0.006570  0.002780  0.003546     2.363
   2.02984  0.98258 -0.00139 -0.99427  0.006398  0.002756  0.003804     2.322
   2.04093  0.99368 -0.00131 -0.99874  0.006212  0.002725  0.004095     2.280
   2.04725  1.00000 -0.00126 -1.00446  0.005935  0.002673  0.004550     2.220
   2.04725  1.00010 -0.00001  1.00446  0.061119  0.013980  0.000000     4.372
   2.05356  1.00636 -0.00082  1.00059  0.060250  0.014323  0.000000     4.206
   2.06096  1.01371 -0.00164  0.99472  0.059042  0.014846  0.000000     3.977
   2.06964  1.02234 -0.00255  0.98744  0.057560  0.015498  0.000000     3.714
   2.07981  1.03246 -0.00356  0.97900  0.055761  0.016257  0.000000     3.430
   2.09174  1.04434 -0.00467  0.97093  0.053560  0.016985  0.000000     3.153
   2.10574  1.05828 -0.00590  0.96280  0.050971  0.017716  0.000000     2.877
   2.12215  1.07463 -0.00726  0.95513  0.047992  0.018401  0.000000     2.608
   2.14139  1.09382 -0.00876  0.94857  0.044659  0.018978  0.000000     2.353
   2.16396  1.11633 -0.01040  0.94385  0.041061  0.019383  0.000000     2.118
   2.19042  1.14273 -0.01220  0.94162  0.037345  0.019568  0.000000     1.908
   2.22145  1.17370 -0.01416  0.94223  0.033699  0.019520  0.000000     1.726
   2.25784  1.21003 -0.01627  0.94553  0.030316  0.019273  0.000000     1.573
   2.30052  1.25265 -0.01855  0.95087  0.027345  0.018895  0.000000     1.447
   2.35057  1.30264 -0.02098  0.95731  0.024854  0.018467  0.000000     1.346
   2.40926  1.36127 -0.02355  0.96396  0.022836  0.018050  0.000000     1.265
   2.47809  1.43004 -0.02624  0.97020  0.021237  0.017677  0.000000     1.201
   2.55880  1.51071 -0.02903  0.97574  0.019989  0.017360  0.000000     1.151
   2.65345  1.60531 -0.03188  0.98048  0.019027  0.017098  0.000000     1.113
   2.76445  1.71627 -0.03475  0.98447  0.018294  0.016885  0.000000     1.083
   2.89461  1.84641 -0.03759  0.98773  0.017742  0.016714  0.000000     1.061
   3.04725  1.99903 -0.04033  0.99145  0.017270  0.016523  0.000000     1.045
