#    s        x        y     Ue/Vinf    Dstar     Theta      Cf       H
   0.00000  1.00000  0.00126  1.18822  0.266037  0.014676 -0.000231    18.127
   0.00630  0.99392  0.00292  1.18962  0.264069  0.014330 -0.000237    18.427
   0.01727  0.98333  0.00577  1.19213  0.260610  0.013719 -0.000248    18.996
   0.03004  0.97098  0.00904  1.19519  0.256485  0.012991 -0.000262    19.744
   0.04430  0.95718  0.01262  1.19878  0.251809  0.012153 -0.000280    20.721
   0.05958  0.94237  0.01638  1.20290  0.246734  0.011219 -0.000304    21.992
   0.07546  0.92696  0.02021  1.20752  0.241393  0.010202 -0.000321    23.661
   0.09164  0.91123  0.02403  1.21269  0.235872  0.009100 -0.000324    25.920
   0.10799  0.89533  0.02780  1.21852  0.230207  0.007899 -0.000327    29.143
   0.12441  0.87933  0.03149  1.22525  0.224389  0.006566 -0.000330    34.175
   0.14087  0.86327  0.03511  1.23351  0.218327  0.004986 -0.000335    43.791
   0.15734  0.84718  0.03864  1.24607  0.211574  0.002590 -0.000342    81.699
   0.17383  0.83106  0.04208  1.24649  0.206764  0.002524 -0.001368    81.935
   0.19032  0.81492  0.04544  1.24661  0.201909  0.002511 -0.001375    80.398
   0.20680  0.79875  0.04870  1.24672  0.196987  0.002500 -0.001381    78.786
   0.22329  0.78258  0.05188  1.24683  0.192010  0.002490 -0.001387    77.109
   0.23978  0.76638  0.05496  1.24694  0.186987  0.002481 -0.001393    75.372
   0.25626  0.75017  0.05796  1.24704  0.181930  0.002472 -0.001398    73.584
   0.27274  0.73395  0.06086  1.24714  0.176843  0.002465 -0.001403    71.747
   0.28921  0.71772  0.06368  1.24724  0.171731  0.002458 -0.001407    69.866
   0.30568  0.70148  0.06640  1.24734  0.166598  0.002452 -0.001411    67.945
   0.32214  0.68523  0.06902  1.24743  0.161448  0.002447 -0.001414    65.985
   0.33859  0.66898  0.07155  1.24752  0.156287  0.002442 -0.001418    63.993
   0.35503  0.65272  0.07398  1.24761  0.151116  0.002439 -0.001420    61.970
   0.37146  0.63645  0.07632  1.24770  0.145940  0.002436 -0.001423    59.920
   0.38788  0.62019  0.07855  1.24778  0.140760  0.002433 -0.001424    57.845
   0.40429  0.60392  0.08069  1.24786  0.135583  0.002432 -0.001426    55.751
   0.42068  0.58766  0.08272  1.24793  0.130407  0.002431 -0.001427    53.638
   0.43705  0.57140  0.08465  1.24800  0.125240  0.002431 -0.001428    51.514
   0.45341  0.55514  0.08647  1.24807  0.120080  0.002432 -0.001428    49.377
   0.46975  0.53889  0.08818  1.24813  0.114935  0.002433 -0.001428    47.235
   0.48606  0.52265  0.08978  1.24819  0.109805  0.002435 -0.001428    45.089
   0.50236  0.50642  0.09127  1.24824  0.104692  0.002438 -0.001428    42.943
   0.51863  0.49021  0.09264  1.24829  0.099603  0.002441 -0.001427    40.803
   0.53487  0.47402  0.09390  1.24834  0.094539  0.002445 -0.001426    38.669
   0.55108  0.45785  0.09503  1.24838  0.089503  0.002449 -0.001425    36.547
   0.56725  0.44172  0.09603  1.24842  0.084502  0.002454 -0.001424    34.440
   0.58335  0.42564  0.09690  1.24845  0.079543  0.002458 -0.001423    32.354
   0.59935  0.40965  0.09765  1.24849  0.074638  0.002464 -0.001423    30.296
   0.61519  0.39382  0.09824  1.24852  0.069798  0.002469 -0.001422    28.271
   0.63085  0.37817  0.09865  1.24856  0.065100  0.002474 -0.001422    26.319
   0.64639  0.36263  0.09885  1.24863  0.060535  0.002477 -0.001423    24.438
   0.66187  0.34716  0.09884  1.24872  0.056100  0.002479 -0.001426    22.627
   0.67728  0.33174  0.09863  1.24886  0.051799  0.002480 -0.001430    20.887
   0.69264  0.31639  0.09821  1.24905  0.047634  0.002479 -0.001435    19.218
   0.70795  0.30109  0.09757  1.24932  0.043612  0.002475 -0.001444    17.622
   0.72321  0.28586  0.09672  1.24968  0.039739  0.002468 -0.001455    16.100
   0.73841  0.27069  0.09564  1.25018  0.036021  0.002458 -0.001470    14.653
   0.75355  0.25561  0.09433  1.25086  0.032469  0.002444 -0.001490    13.283
   0.76863  0.24061  0.09280  1.25178  0.029083  0.002425 -0.001516    11.991
   0.78363  0.22571  0.09103  1.25302  0.025881  0.002401 -0.001550    10.781
   0.79855  0.21092  0.08902  1.25470  0.022866  0.002369 -0.001596     9.652
   0.81339  0.19626  0.08678  1.25698  0.020048  0.002329 -0.001657     8.607
   0.82811  0.18175  0.08429  1.26005  0.017438  0.002280 -0.001741     7.647
   0.84271  0.16741  0.08155  1.26419  0.015045  0.002221 -0.001858     6.775
   0.85717  0.15327  0.07856  1.26976  0.012882  0.002149 -0.002020     5.995
   0.87144  0.13937  0.07533  1.27722  0.010955  0.002064 -0.002164     5.309
   0.88548  0.12576  0.07185  1.28706  0.009271  0.001964 -0.002095     4.720
   0.89921  0.11254  0.06815  1.29960  0.007831  0.001852 -0.001453     4.228
   0.91255  0.09978  0.06426  1.31470  0.006626  0.001731  0.000008     3.829
   0.92536  0.08762  0.06020  1.33230  0.005639  0.001601  0.002265     3.522
   0.93750  0.07622  0.05606  1.35168  0.004841  0.001469  0.005128     3.295
   0.94879  0.06572  0.05190  1.37169  0.004198  0.001341  0.008405     3.130
   0.95911  0.05625  0.04782  1.39130  0.003677  0.001222  0.011954     3.010
   0.96837  0.04786  0.04389  1.40984  0.003249  0.001113  0.015745     2.920
   0.97657  0.04055  0.04017  1.42689  0.002892  0.001014  0.019736     2.852
   0.98379  0.03423  0.03668  1.44235  0.002588  0.000926  0.024042     2.796
   0.99012  0.02879  0.03343  1.45612  0.002325  0.000846  0.028710     2.749
   0.99570  0.02411  0.03040  1.46821  0.002094  0.000773  0.033903     2.707
   1.00063  0.02008  0.02756  1.47846  0.001888  0.000708  0.039712     2.668
   1.00502  0.01660  0.02489  1.48665  0.001703  0.000647  0.046220     2.632
   1.00896  0.01357  0.02236  1.49249  0.001537  0.000592  0.053549     2.597
   1.01253  0.01095  0.01995  1.49553  0.001385  0.000541  0.061997     2.561
   1.01577  0.00867  0.01764  1.49493  0.001246  0.000493  0.071625     2.526
   1.01874  0.00671  0.01541  1.48961  0.001119  0.000449  0.082514     2.490
   1.02149  0.00502  0.01324  1.47814  0.001005  0.000409  0.094542     2.456
   1.02404  0.00360  0.01113  1.45876  0.000901  0.000372  0.107885     2.421
   1.02642  0.00242  0.00906  1.42893  0.000810  0.000339  0.121566     2.388
   1.02866  0.00148  0.00703  1.38600  0.000728  0.000310  0.135763     2.352
   1.03077  0.00077  0.00504  1.32650  0.000662  0.000285  0.147116     2.322
   1.03277  0.00029  0.00309  1.24925  0.000607  0.000265  0.154921     2.295
   1.03468  0.00004  0.00120  1.15385  0.000566  0.000249  0.156238     2.276
   1.03651  0.00001 -0.00064  1.04265  0.000535  0.000237  0.151713     2.259
   1.03838  0.00020 -0.00249  0.90938  0.000512  0.000229  0.140871     2.239
   1.04030  0.00065 -0.00436  0.75552  0.000503  0.000225  0.119577     2.235
   1.04230  0.00137 -0.00623  0.58687  0.000501  0.000226  0.094859     2.215
   1.04439  0.00239 -0.00805  0.41374  0.000524  0.000235  0.063463     2.225
   1.04657  0.00369 -0.00980  0.24822  0.000553  0.000250  0.036585     2.209
   1.04888  0.00527 -0.01148  0.10045  0.000622  0.000279  0.012924     2.230
   1.05132  0.00712 -0.01307 -0.03294  0.000622  0.000279  0.004237     2.230
   1.05393  0.00925 -0.01459 -0.14907  0.000727  0.000324  0.016111     2.249
   1.05675  0.01167 -0.01603 -0.24601  0.000794  0.000354  0.024479     2.243
   1.05979  0.01438 -0.01741 -0.33112  0.000874  0.000386  0.029388     2.264
   1.06312  0.01744 -0.01873 -0.40351  0.000967  0.000425  0.032027     2.275
   1.06679  0.02087 -0.02000 -0.46674  0.001063  0.000466  0.033426     2.284
   1.07086  0.02476 -0.02123 -0.52208  0.001172  0.000510  0.033464     2.298
   1.07542  0.02916 -0.02242 -0.57096  0.001289  0.000559  0.032974     2.308
   1.08058  0.03419 -0.02357 -0.61408  0.001423  0.000613  0.031685     2.322
   1.08647  0.03998 -0.02467 -0.65269  0.001565  0.000671  0.030342     2.332
   1.09325  0.04667 -0.02572 -0.68737  0.001725  0.000736  0.028626     2.345
   1.10108  0.05445 -0.02670 -0.71831  0.001904  0.000807  0.026766     2.358
   1.11013  0.06345 -0.02758 -0.74557  0.002104  0.000887  0.024793     2.372
   1.12048  0.07377 -0.02833 -0.76963  0.002319  0.000973  0.022974     2.383
   1.13215  0.08543 -0.02891 -0.79026  0.002555  0.001066  0.021112     2.397
   1.14504  0.09832 -0.02929 -0.80771  0.002803  0.001164  0.019445     2.408
   1.15896  0.11223 -0.02947 -0.82225  0.003058  0.001264  0.017930     2.420
   1.17368  0.12696 -0.02945 -0.83422  0.003317  0.001365  0.016588     2.431
   1.18901  0.14228 -0.02924 -0.84401  0.003577  0.001466  0.015399     2.441
   1.20480  0.15806 -0.02887 -0.85222  0.003829  0.001564  0.014423     2.448
   1.22092  0.17418 -0.02837 -0.85902  0.004079  0.001661  0.013530     2.456
   1.23731  0.19056 -0.02776 -0.86480  0.004320  0.001755  0.012781     2.462
   1.25391  0.20714 -0.02707 -0.86982  0.004553  0.001846  0.012141     2.467
   1.27067  0.22389 -0.02630 -0.87416  0.004780  0.001934  0.011566     2.471
   1.28758  0.24078 -0.02549 -0.87810  0.004995  0.002019  0.011092     2.474
   1.30460  0.25777 -0.02465 -0.88174  0.005198  0.002101  0.010696     2.474
   1.32169  0.27484 -0.02379 -0.88513  0.005392  0.002179  0.010346     2.475
   1.33881  0.29194 -0.02292 -0.88849  0.005567  0.002253  0.010093     2.471
   1.35590  0.30901 -0.02207 -0.89177  0.005733  0.002323  0.009869     2.468
   1.37294  0.32603 -0.02124 -0.89511  0.005880  0.002388  0.009716     2.463
   1.38994  0.34301 -0.02043 -0.89859  0.006010  0.002448  0.009619     2.455
   1.40689  0.35994 -0.01967 -0.90232  0.006119  0.002503  0.009587     2.445
   1.42382  0.37686 -0.01894 -0.90636  0.006208  0.002552  0.009613     2.432
   1.44075  0.39378 -0.01827 -0.91093  0.006267  0.002594  0.009732     2.416
   1.45775  0.41076 -0.01762 -0.91614  0.006299  0.002629  0.009932     2.396
   1.47481  0.42781 -0.01697 -0.92112  0.006366  0.002666  0.009966     2.388
   1.49192  0.44491 -0.01629 -0.92589  0.006451  0.002705  0.009918     2.384
   1.50907  0.46204 -0.01560 -0.93039  0.006547  0.002746  0.009818     2.385
   1.52625  0.47921 -0.01490 -0.93469  0.006647  0.002786  0.009704     2.386
   1.54344  0.49639 -0.01420 -0.93882  0.006747  0.002826  0.009587     2.387
   1.56064  0.51357 -0.01350 -0.94277  0.006848  0.002866  0.009470     2.389
   1.57783  0.53074 -0.01280 -0.94664  0.006943  0.002905  0.009372     2.390
   1.59499  0.54790 -0.01211 -0.95045  0.007032  0.002943  0.009294     2.389
   1.61214  0.56503 -0.01143 -0.95423  0.007114  0.002979  0.009234     2.388
   1.62928  0.58215 -0.01076 -0.95799  0.007191  0.003013  0.009188     2.386
   1.64639  0.59926 -0.01011 -0.96182  0.007258  0.003046  0.009170     2.383
   1.66350  0.61635 -0.00947 -0.96569  0.007319  0.003076  0.009165     2.379
   1.68058  0.63342 -0.00885 -0.96968  0.007368  0.003104  0.009190     2.374
   1.69766  0.65049 -0.00825 -0.97377  0.007412  0.003130  0.009228     2.368
   1.71473  0.66755 -0.00768 -0.97801  0.007445  0.003153  0.009290     2.361
   1.73178  0.68459 -0.00712 -0.98242  0.007469  0.003174  0.009373     2.353
   1.74883  0.70164 -0.00659 -0.98700  0.007486  0.003193  0.009471     2.345
   1.76588  0.71867 -0.00608 -0.99185  0.007490  0.003208  0.009602     2.335
   1.78292  0.73570 -0.00560 -0.99691  0.007488  0.003220  0.009746     2.325
   1.79995  0.75273 -0.00514 -1.00228  0.007473  0.003229  0.009920     2.314
   1.81698  0.76976 -0.00471 -1.00793  0.007451  0.003235  0.010113     2.303
   1.83401  0.78678 -0.00431 -1.01396  0.007415  0.003238  0.010343     2.290
   1.85104  0.80381 -0.00393 -1.02036  0.007371  0.003236  0.010597     2.278
   1.86807  0.82084 -0.00357 -1.02726  0.007312  0.003231  0.010898     2.263
   1.88510  0.83786 -0.00324 -1.03465  0.007242  0.003221  0.011232     2.248
   1.90213  0.85489 -0.00294 -1.04270  0.007155  0.003206  0.011631     2.232
   1.91914  0.87190 -0.00266 -1.05142  0.007054  0.003185  0.012080     2.215
   1.93613  0.88889 -0.00241 -1.06098  0.006936  0.003158  0.012604     2.196
   1.95305  0.90581 -0.00218 -1.07159  0.006794  0.003124  0.013238     2.175
   1.96983  0.92258 -0.00197 -1.08340  0.006629  0.003081  0.013992     2.152
   1.98627  0.93902 -0.00179 -1.09665  0.006435  0.003027  0.014917     2.126
   2.00209  0.95483 -0.00163 -1.11157  0.006207  0.002961  0.016066     2.096
   2.01678  0.96953 -0.00150 -1.12814  0.005948  0.002883  0.017485     2.063
   2.02984  0.98258 -0.00139 -1.14667  0.005644  0.002789  0.019325     2.024
   2.04093  0.99368 -0.00131 -1.16671  0.005318  0.002684  0.021570     1.981
   2.04725  1.00000 -0.00126 -1.18822  0.004880  0.002549  0.025167     1.915
   2.04725  1.00010 -0.00001  1.18822  0.273392  0.017225  0.000000    15.872
   2.05356  1.00636 -0.00079  1.18630  0.273605  0.017726  0.000000    15.436
   2.06096  1.01372 -0.00153  1.18389  0.273625  0.018355  0.000000    14.908
   2.06964  1.02237 -0.00227  1.18106  0.273549  0.019098  0.000000    14.324
   2.07981  1.03251 -0.00303  1.17775  0.273338  0.019976  0.000000    13.683
   2.09174  1.04442 -0.00380  1.17386  0.272948  0.021016  0.000000    12.988
   2.10574  1.05839 -0.00455  1.16929  0.272320  0.022248  0.000000    12.240
   2.12215  1.07479 -0.00526  1.16392  0.271373  0.023712  0.000000    11.445
   2.14139  1.09402 -0.00590  1.15761  0.270003  0.025452  0.000000    10.608
   2.16396  1.11658 -0.00642  1.15018  0.268074  0.027528  0.000000     9.738
   2.19042  1.14304 -0.00675  1.14141  0.265412  0.030013  0.000000     8.843
   2.22145  1.17407 -0.00681  1.13104  0.261799  0.032999  0.000000     7.934
   2.25784  1.21047 -0.00649  1.11871  0.256960  0.036608  0.000000     7.019
   2.30052  1.25313 -0.00566  1.10398  0.250559  0.041009  0.000000     6.110
   2.35057  1.30316 -0.00415  1.08618  0.242207  0.046448  0.000000     5.215
   2.40926  1.36180 -0.00173  1.06415  0.231527  0.053369  0.000000     4.338
   2.47809  1.43053  0.00185  1.03539  0.218351  0.062746  0.000000     3.480
   2.55880  1.51108  0.00693  1.00779  0.201638  0.072091  0.000000     2.797
   2.65345  1.60548  0.01388  0.98707  0.181618  0.079229  0.000000     2.292
   2.76445  1.71608  0.02320  0.97514  0.159394  0.083283  0.000000     1.914
   2.89461  1.84567  0.03545  0.97472  0.135911  0.083420  0.000000     1.629
   3.04725  1.99749  0.05131  1.02804  0.093646  0.069266  0.000000     1.352
