#    s        x        y     Ue/Vinf    Dstar     Theta      Cf       H
   0.00000  1.00000  0.00126  1.00208  0.055025  0.013069 -0.000051     4.210
   0.00630  0.99392  0.00292  1.00516  0.054278  0.012823 -0.000055     4.233
   0.01727  0.98333  0.00577  1.01070  0.052935  0.012390 -0.000061     4.273
   0.03004  0.97098  0.00904  1.01751  0.051423  0.011877 -0.000069     4.330
   0.04430  0.95718  0.01262  1.02561  0.049818  0.011293 -0.000080     4.412
   0.05958  0.94237  0.01638  1.03490  0.048203  0.010653 -0.000094     4.525
   0.07546  0.92696  0.02021  1.04530  0.046639  0.009974 -0.000110     4.676
   0.09164  0.91123  0.02403  1.05674  0.045162  0.009266 -0.000127     4.874
   0.10799  0.89533  0.02780  1.06922  0.043784  0.008535 -0.000145     5.130
   0.12441  0.87933  0.03149  1.08280  0.042505  0.007785 -0.000162     5.460
   0.14087  0.86327  0.03511  1.09761  0.041318  0.007016 -0.000179     5.889
   0.15734  0.84718  0.03864  1.11381  0.040205  0.006225 -0.000198     6.459
   0.17383  0.83106  0.04208  1.13185  0.039140  0.005401 -0.000223     7.247
   0.19032  0.81492  0.04544  1.15207  0.038090  0.004540 -0.000261     8.389
   0.20680  0.79875  0.04870  1.17513  0.037006  0.003632 -0.000304    10.189
   0.22329  0.78258  0.05188  1.20269  0.035782  0.002634 -0.000318    13.586
   0.23978  0.76638  0.05496  1.21675  0.034732  0.002170 -0.000537    16.002
   0.25626  0.75017  0.05796  1.21721  0.033793  0.002159 -0.000541    15.653
   0.27274  0.73395  0.06086  1.21763  0.032705  0.002149 -0.000545    15.220
   0.28921  0.71772  0.06368  1.21804  0.031514  0.002140 -0.000548    14.728
   0.30568  0.70148  0.06640  1.21844  0.030247  0.002131 -0.000552    14.194
   0.32214  0.68523  0.06902  1.21886  0.028924  0.002123 -0.000556    13.627
   0.33859  0.66898  0.07155  1.21929  0.027561  0.002114 -0.000560    13.037
   0.35503  0.65272  0.07398  1.21976  0.026169  0.002105 -0.000565    12.430
   0.37146  0.63645  0.07632  1.22027  0.024759  0.002096 -0.000571    11.813
   0.38788  0.62019  0.07855  1.22085  0.023339  0.002086 -0.000577    11.189
   0.40429  0.60392  0.08069  1.22150  0.021920  0.002075 -0.000584    10.565
   0.42068  0.58766  0.08272  1.22225  0.020507  0.002062 -0.000593     9.943
   0.43705  0.57140  0.08465  1.22313  0.019110  0.002048 -0.000603     9.329
   0.45341  0.55514  0.08647  1.22417  0.017733  0.002033 -0.000615     8.724
   0.46975  0.53889  0.08818  1.22541  0.016385  0.002015 -0.000630     8.133
   0.48606  0.52265  0.08978  1.22690  0.015071  0.001994 -0.000648     7.557
   0.50236  0.50642  0.09127  1.22869  0.013799  0.001971 -0.000671     7.002
   0.51863  0.49021  0.09264  1.23087  0.012575  0.001944 -0.000700     6.468
   0.53487  0.47402  0.09390  1.23354  0.011406  0.001914 -0.000736     5.960
   0.55108  0.45785  0.09503  1.23679  0.010294  0.001879 -0.000768     5.478
   0.56725  0.44172  0.09603  1.24077  0.009248  0.001840 -0.000772     5.026
   0.58335  0.42564  0.09690  1.24559  0.008270  0.001796 -0.000702     4.605
   0.59935  0.40965  0.09765  1.25132  0.007364  0.001747 -0.000483     4.215
   0.61519  0.39382  0.09824  1.25788  0.006523  0.001694 -0.000034     3.851
   0.63085  0.37817  0.09865  1.26546  0.005811  0.001636  0.000618     3.553
   0.64639  0.36263  0.09885  1.27394  0.005219  0.001573  0.001414     3.319
   0.66187  0.34716  0.09884  1.28288  0.004731  0.001508  0.002291     3.138
   0.67728  0.33174  0.09863  1.29178  0.004329  0.001443  0.003194     3.000
   0.69264  0.31639  0.09821  1.30023  0.003995  0.001381  0.004095     2.893
   0.70795  0.30109  0.09757  1.30793  0.003715  0.001322  0.004970     2.810
   0.72321  0.28586  0.09672  1.31471  0.003476  0.001266  0.005810     2.745
   0.73841  0.27069  0.09564  1.32051  0.003267  0.001213  0.006626     2.693
   0.75355  0.25561  0.09433  1.32525  0.003084  0.001163  0.007404     2.652
   0.76863  0.24061  0.09280  1.32899  0.002918  0.001115  0.008174     2.617
   0.78363  0.22571  0.09103  1.33162  0.002768  0.001069  0.008915     2.590
   0.79855  0.21092  0.08902  1.33325  0.002627  0.001024  0.009663     2.566
   0.81339  0.19626  0.08678  1.33380  0.002495  0.000980  0.010409     2.545
   0.82811  0.18175  0.08429  1.33322  0.002370  0.000937  0.011152     2.529
   0.84271  0.16741  0.08155  1.33159  0.002249  0.000895  0.011937     2.513
   0.85717  0.15327  0.07856  1.32870  0.002134  0.000853  0.012717     2.501
   0.87144  0.13937  0.07533  1.32466  0.002020  0.000811  0.013569     2.489
   0.88548  0.12576  0.07185  1.31922  0.001909  0.000770  0.014437     2.480
   0.89921  0.11254  0.06815  1.31244  0.001799  0.000728  0.015374     2.472
   0.91255  0.09978  0.06426  1.30420  0.001690  0.000686  0.016400     2.464
   0.92536  0.08762  0.06020  1.29436  0.001583  0.000644  0.017495     2.457
   0.93750  0.07622  0.05606  1.28299  0.001476  0.000602  0.018737     2.450
   0.94879  0.06572  0.05190  1.26993  0.001373  0.000562  0.020063     2.444
   0.95911  0.05625  0.04782  1.25535  0.001273  0.000522  0.021554     2.437
   0.96837  0.04786  0.04389  1.23917  0.001178  0.000485  0.023142     2.430
   0.97657  0.04055  0.04017  1.22152  0.001089  0.000449  0.024864     2.423
   0.98379  0.03423  0.03668  1.20232  0.001005  0.000416  0.026735     2.414
   0.99012  0.02879  0.03343  1.18137  0.000929  0.000386  0.028628     2.408
   0.99570  0.02411  0.03040  1.15869  0.000856  0.000357  0.030805     2.397
   1.00063  0.02008  0.02756  1.13337  0.000788  0.000330  0.033099     2.385
   1.00502  0.01660  0.02489  1.10496  0.000726  0.000306  0.035311     2.376
   1.00896  0.01357  0.02236  1.07324  0.000668  0.000282  0.037780     2.364
   1.01253  0.01095  0.01995  1.03691  0.000613  0.000261  0.040223     2.352
   1.01577  0.00867  0.01764  0.99505  0.000562  0.000241  0.042654     2.338
   1.01874  0.00671  0.01541  0.94649  0.000516  0.000222  0.044685     2.327
   1.02149  0.00502  0.01324  0.88993  0.000471  0.000204  0.046725     2.311
   1.02404  0.00360  0.01113  0.82250  0.000431  0.000188  0.047956     2.294
   1.02642  0.00242  0.00906  0.74301  0.000397  0.000174  0.047589     2.283
   1.02866  0.00148  0.00703  0.65058  0.000364  0.000161  0.045900     2.269
   1.03077  0.00077  0.00504  0.54252  0.000337  0.000150  0.041954     2.254
   1.03277  0.00029  0.00309  0.41891  0.000317  0.000141  0.034832     2.242
   1.03468  0.00004  0.00120  0.28396  0.000302  0.000135  0.024809     2.239
   1.03651  0.00001 -0.00064  0.13992  0.000290  0.000130  0.012860     2.230
   1.03838  0.00020 -0.00249 -0.01566  0.000290  0.000130  0.001440     2.230
   1.04030  0.00065 -0.00436 -0.18016  0.000285  0.000128  0.016859     2.229
   1.04230  0.00137 -0.00623 -0.34070  0.000300  0.000134  0.029915     2.243
   1.04439  0.00239 -0.00805 -0.48859  0.000316  0.000141  0.040758     2.243
   1.04657  0.00369 -0.00980 -0.61648  0.000345  0.000152  0.045846     2.270
   1.04888  0.00527 -0.01148 -0.72067  0.000381  0.000167  0.047944     2.284
   1.05132  0.00712 -0.01307 -0.80357  0.000426  0.000185  0.046756     2.308
   1.05393  0.00925 -0.01459 -0.86839  0.000477  0.000205  0.044363     2.328
   1.05675  0.01167 -0.01603 -0.91884  0.000534  0.000227  0.041030     2.350
   1.05979  0.01438 -0.01741 -0.95729  0.000598  0.000252  0.037197     2.375
   1.06312  0.01744 -0.01873 -0.98717  0.000667  0.000279  0.033762     2.394
   1.06679  0.02087 -0.02000 -1.01002  0.000744  0.000308  0.030244     2.418
   1.07086  0.02476 -0.02123 -1.02740  0.000828  0.000339  0.027052     2.439
   1.07542  0.02916 -0.02242 -1.04056  0.000920  0.000374  0.024151     2.460
   1.08058  0.03419 -0.02357 -1.04992  0.001023  0.000412  0.021371     2.483
   1.08647  0.03998 -0.02467 -1.05629  0.001136  0.000453  0.018912     2.505
   1.09325  0.04667 -0.02572 -1.06013  0.001262  0.000499  0.016683     2.527
   1.10108  0.05445 -0.02670 -1.06163  0.001404  0.000550  0.014637     2.551
   1.11013  0.06345 -0.02758 -1.06104  0.001563  0.000607  0.012789     2.575
   1.12048  0.07377 -0.02833 -1.05875  0.001736  0.000668  0.011188     2.598
   1.13215  0.08543 -0.02891 -1.05493  0.001927  0.000735  0.009757     2.623
   1.14504  0.09832 -0.02929 -1.04996  0.002131  0.000805  0.008530     2.648
   1.15896  0.11223 -0.02947 -1.04426  0.002342  0.000877  0.007505     2.672
   1.17368  0.12696 -0.02945 -1.03817  0.002558  0.000950  0.006646     2.694
   1.18901  0.14228 -0.02924 -1.03186  0.002779  0.001023  0.005914     2.717
   1.20480  0.15806 -0.02887 -1.02566  0.002995  0.001095  0.005328     2.735
   1.22092  0.17418 -0.02837 -1.01952  0.003213  0.001166  0.004812     2.755
   1.23731  0.19056 -0.02776 -1.01369  0.003422  0.001235  0.004405     2.771
   1.25391  0.20714 -0.02707 -1.00810  0.003629  0.001303  0.004055     2.785
   1.27067  0.22389 -0.02630 -1.00281  0.003829  0.001369  0.003765     2.796
   1.28758  0.24078 -0.02549 -0.99788  0.004019  0.001433  0.003531     2.804
   1.30460  0.25777 -0.02465 -0.99327  0.004202  0.001495  0.003337     2.810
   1.32169  0.27484 -0.02379 -0.98905  0.004372  0.001555  0.003186     2.812
   1.33881  0.29194 -0.02292 -0.98523  0.004527  0.001612  0.003076     2.809
   1.35590  0.30901 -0.02207 -0.98179  0.004671  0.001666  0.002993     2.804
   1.37294  0.32603 -0.02124 -0.97880  0.004796  0.001717  0.002948     2.793
   1.38994  0.34301 -0.02043 -0.97625  0.004903  0.001765  0.002934     2.778
   1.40689  0.35994 -0.01967 -0.97419  0.004989  0.001809  0.002954     2.757
   1.42382  0.37686 -0.01894 -0.97265  0.005053  0.001850  0.003009     2.732
   1.44075  0.39378 -0.01827 -0.97177  0.005087  0.001885  0.003112     2.699
   1.45775  0.41076 -0.01762 -0.97159  0.005094  0.001915  0.003258     2.659
   1.47481  0.42781 -0.01697 -0.97130  0.005138  0.001948  0.003313     2.638
   1.49192  0.44491 -0.01629 -0.97093  0.005202  0.001981  0.003317     2.626
   1.50907  0.46204 -0.01560 -0.97045  0.005283  0.002016  0.003285     2.620
   1.52625  0.47921 -0.01490 -0.96989  0.005372  0.002051  0.003234     2.619
   1.54344  0.49639 -0.01420 -0.96927  0.005467  0.002086  0.003171     2.620
   1.56064  0.51357 -0.01350 -0.96858  0.005567  0.002122  0.003101     2.623
   1.57783  0.53074 -0.01280 -0.96788  0.005666  0.002157  0.003034     2.626
   1.59499  0.54790 -0.01211 -0.96718  0.005763  0.002192  0.002971     2.629
   1.61214  0.56503 -0.01143 -0.96649  0.005859  0.002226  0.002913     2.631
   1.62928  0.58215 -0.01076 -0.96582  0.005952  0.002260  0.002858     2.633
   1.64639  0.59926 -0.01011 -0.96521  0.006039  0.002293  0.002814     2.634
   1.66350  0.61635 -0.00947 -0.96463  0.006123  0.002325  0.002774     2.634
   1.68058  0.63342 -0.00885 -0.96414  0.006199  0.002356  0.002745     2.632
   1.69766  0.65049 -0.00825 -0.96372  0.006271  0.002386  0.002722     2.629
   1.71473  0.66755 -0.00768 -0.96338  0.006336  0.002415  0.002707     2.624
   1.73178  0.68459 -0.00712 -0.96314  0.006395  0.002442  0.002699     2.619
   1.74883  0.70164 -0.00659 -0.96300  0.006448  0.002469  0.002697     2.612
   1.76588  0.71867 -0.00608 -0.96298  0.006493  0.002494  0.002704     2.604
   1.78292  0.73570 -0.00560 -0.96307  0.006532  0.002518  0.002716     2.595
   1.79995  0.75273 -0.00514 -0.96329  0.006563  0.002540  0.002736     2.584
   1.81698  0.76976 -0.00471 -0.96363  0.006589  0.002561  0.002762     2.573
   1.83401  0.78678 -0.00431 -0.96414  0.006606  0.002580  0.002795     2.560
   1.85104  0.80381 -0.00393 -0.96479  0.006616  0.002598  0.002835     2.547
   1.86807  0.82084 -0.00357 -0.96563  0.006618  0.002614  0.002884     2.532
   1.88510  0.83786 -0.00324 -0.96663  0.006612  0.002628  0.002940     2.516
   1.90213  0.85489 -0.00294 -0.96789  0.006594  0.002640  0.003009     2.498
   1.91914  0.87190 -0.00266 -0.96935  0.006570  0.002650  0.003084     2.480
   1.93613  0.88889 -0.00241 -0.97109  0.006534  0.002657  0.003173     2.459
   1.95305  0.90581 -0.00218 -0.97316  0.006483  0.002660  0.003279     2.437
   1.96983  0.92258 -0.00197 -0.97561  0.006417  0.002660  0.003406     2.412
   1.98627  0.93902 -0.00179 -0.97851  0.006333  0.002655  0.003557     2.385
   2.00209  0.95483 -0.00163 -0.98195  0.006227  0.002645  0.003742     2.354
   2.01678  0.96953 -0.00150 -0.98592  0.006098  0.002628  0.003964     2.320
   2.02984  0.98258 -0.00139 -0.99055  0.005938  0.002603  0.004241     2.282
   2.04093  0.99368 -0.00131 -0.99561  0.005763  0.002571  0.004556     2.241
   2.04725  1.00000 -0.00126 -1.00208  0.005492  0.002517  0.005075     2.182
   2.04725  1.00010 -0.00001  1.00208  0.062992  0.015586  0.000000     4.041
   2.05356  1.00636 -0.00081  0.99848  0.062188  0.015926  0.000000     3.905
   2.06096  1.01371 -0.00163  0.99278  0.061073  0.016464  0.000000     3.709
   2.06964  1.02234 -0.00252  0.98599  0.059695  0.017109  0.000000     3.489
   2.07981  1.03247 -0.00350  0.97916  0.057978  0.017760  0.000000     3.264
   2.09174  1.04435 -0.00458  0.97217  0.055911  0.018428  0.000000     3.034
   2.10574  1.05830 -0.00576  0.96511  0.053478  0.019101  0.000000     2.800
   2.12215  1.07465 -0.00706  0.95836  0.050672  0.019738  0.000000     2.567
   2.14139  1.09384 -0.00847  0.95246  0.047517  0.020289  0.000000     2.342
   2.16396  1.11636 -0.01000  0.94800  0.044079  0.020697  0.000000     2.130
   2.19042  1.14277 -0.01165  0.94553  0.040475  0.020915  0.000000     1.935
   2.22145  1.17375 -0.01342  0.94544  0.036865  0.020923  0.000000     1.762
   2.25784  1.21010 -0.01529  0.94776  0.033429  0.020735  0.000000     1.612
   2.30052  1.25273 -0.01725  0.95206  0.030322  0.020404  0.000000     1.486
   2.35057  1.30274 -0.01928  0.95764  0.027640  0.019999  0.000000     1.382
   2.40926  1.36139 -0.02134  0.96369  0.025409  0.019583  0.000000     1.298
   2.47809  1.43019 -0.02339  0.96959  0.023602  0.019197  0.000000     1.229
   2.55880  1.51087 -0.02538  0.97496  0.022163  0.018860  0.000000     1.175
   2.65345  1.60551 -0.02723  0.97966  0.021033  0.018576  0.000000     1.132
   2.76445  1.71649 -0.02886  0.98366  0.020158  0.018342  0.000000     1.099
   2.89461  1.84665 -0.03015  0.98699  0.019490  0.018152  0.000000     1.074
   3.04725  1.99929 -0.03098  0.99103  0.018904  0.017926  0.000000     1.055
