#    s        x        y     Ue/Vinf    Dstar     Theta      Cf       H
   0.00000  1.00000  0.00126  1.21762  0.351189  0.025735 -0.000137    13.646
   0.00630  0.99392  0.00292  1.21834  0.348935  0.025497 -0.000139    13.686
   0.01727  0.98333  0.00577  1.21962  0.344997  0.025079 -0.000141    13.756
   0.03004  0.97098  0.00904  1.22114  0.340294  0.024592 -0.000144    13.837
   0.04430  0.95718  0.01262  1.22287  0.334965  0.024046 -0.000148    13.930
   0.05958  0.94237  0.01638  1.22477  0.329195  0.023458 -0.000151    14.033
   0.07546  0.92696  0.02021  1.22680  0.323149  0.022843 -0.000156    14.147
   0.09164  0.91123  0.02403  1.22893  0.316945  0.022210 -0.000160    14.270
   0.10799  0.89533  0.02780  1.23115  0.310650  0.021566 -0.000165    14.405
   0.12441  0.87933  0.03149  1.23345  0.304302  0.020912 -0.000171    14.551
   0.14087  0.86327  0.03511  1.23584  0.297926  0.020250 -0.000176    14.712
   0.15734  0.84718  0.03864  1.23832  0.291528  0.019581 -0.000183    14.889
   0.17383  0.83106  0.04208  1.24090  0.285118  0.018902 -0.000189    15.084
   0.19032  0.81492  0.04544  1.24358  0.278701  0.018215 -0.000197    15.301
   0.20680  0.79875  0.04870  1.24637  0.272281  0.017518 -0.000205    15.543
   0.22329  0.78258  0.05188  1.24929  0.265859  0.016811 -0.000214    15.815
   0.23978  0.76638  0.05496  1.25233  0.259434  0.016092 -0.000224    16.122
   0.25626  0.75017  0.05796  1.25558  0.253004  0.015348 -0.000235    16.484
   0.27274  0.73395  0.06086  1.25900  0.246575  0.014588 -0.000247    16.903
   0.28921  0.71772  0.06368  1.26261  0.240147  0.013811 -0.000262    17.388
   0.30568  0.70148  0.06640  1.26644  0.233722  0.013015 -0.000278    17.959
   0.32214  0.68523  0.06902  1.27050  0.227297  0.012196 -0.000297    18.637
   0.33859  0.66898  0.07155  1.27485  0.220871  0.011352 -0.000320    19.457
   0.35503  0.65272  0.07398  1.27952  0.214442  0.010477 -0.000347    20.468
   0.37146  0.63645  0.07632  1.28459  0.208002  0.009564 -0.000363    21.748
   0.38788  0.62019  0.07855  1.29014  0.201544  0.008603 -0.000366    23.427
   0.40429  0.60392  0.08069  1.29631  0.195055  0.007580 -0.000370    25.732
   0.42068  0.58766  0.08272  1.30327  0.188518  0.006478 -0.000374    29.101
   0.43705  0.57140  0.08465  1.31148  0.181878  0.005237 -0.000378    34.732
   0.45341  0.55514  0.08647  1.32202  0.174999  0.003716 -0.000385    47.099
   0.46975  0.53889  0.08818  1.33502  0.167879  0.001942 -0.001903    86.467
   0.48606  0.52265  0.08978  1.33524  0.162257  0.001923 -0.001923    84.399
   0.50236  0.50642  0.09127  1.33546  0.156551  0.001905 -0.001942    82.191
   0.51863  0.49021  0.09264  1.33567  0.150787  0.001888 -0.001960    79.867
   0.53487  0.47402  0.09390  1.33589  0.144978  0.001872 -0.001977    77.435
   0.55108  0.45785  0.09503  1.33611  0.139134  0.001858 -0.001993    74.902
   0.56725  0.44172  0.09603  1.33632  0.133264  0.001844 -0.002009    72.272
   0.58335  0.42564  0.09690  1.33654  0.127383  0.001831 -0.002024    69.556
   0.59935  0.40965  0.09765  1.33675  0.121500  0.001820 -0.002037    66.758
   0.61519  0.39382  0.09824  1.33696  0.115639  0.001810 -0.002050    63.888
   0.63085  0.37817  0.09865  1.33717  0.109869  0.001801 -0.002062    61.013
   0.64639  0.36263  0.09885  1.33739  0.104187  0.001792 -0.002073    58.145
   0.66187  0.34716  0.09884  1.33761  0.098584  0.001783 -0.002085    55.283
   0.67728  0.33174  0.09863  1.33785  0.093065  0.001775 -0.002096    52.437
   0.69264  0.31639  0.09821  1.33809  0.087630  0.001766 -0.002108    49.607
   0.70795  0.30109  0.09757  1.33836  0.082283  0.001758 -0.002120    46.800
   0.72321  0.28586  0.09672  1.33864  0.077032  0.001750 -0.002133    44.023
   0.73841  0.27069  0.09564  1.33894  0.071880  0.001741 -0.002146    41.282
   0.75355  0.25561  0.09433  1.33927  0.066836  0.001732 -0.002160    38.582
   0.76863  0.24061  0.09280  1.33964  0.061900  0.001723 -0.002175    35.927
   0.78363  0.22571  0.09103  1.34004  0.057081  0.001713 -0.002191    33.323
   0.79855  0.21092  0.08902  1.34050  0.052384  0.001702 -0.002210    30.775
   0.81339  0.19626  0.08678  1.34103  0.047818  0.001690 -0.002231    28.289
   0.82811  0.18175  0.08429  1.34164  0.043386  0.001677 -0.002255    25.868
   0.84271  0.16741  0.08155  1.34236  0.039100  0.001662 -0.002283    23.520
   0.85717  0.15327  0.07856  1.34323  0.034970  0.001646 -0.002316    21.252
   0.87144  0.13937  0.07533  1.34430  0.031006  0.001626 -0.002356    19.069
   0.88548  0.12576  0.07185  1.34564  0.027227  0.001603 -0.002405    16.984
   0.89921  0.11254  0.06815  1.34735  0.023650  0.001576 -0.002467    15.007
   0.91255  0.09978  0.06426  1.34958  0.020304  0.001544 -0.002547    13.154
   0.92536  0.08762  0.06020  1.35255  0.017217  0.001505 -0.002652    11.441
   0.93750  0.07622  0.05606  1.35654  0.014427  0.001459 -0.002792     9.891
   0.94879  0.06572  0.05190  1.36188  0.011961  0.001404 -0.002984     8.517
   0.95911  0.05625  0.04782  1.36897  0.009838  0.001342 -0.003250     7.330
   0.96837  0.04786  0.04389  1.37823  0.008053  0.001273 -0.003623     6.326
   0.97657  0.04055  0.04017  1.39009  0.006589  0.001197 -0.004063     5.503
   0.98379  0.03423  0.03668  1.40490  0.005403  0.001117 -0.004173     4.837
   0.99012  0.02879  0.03343  1.42272  0.004454  0.001034 -0.003214     4.307
   0.99570  0.02411  0.03040  1.44299  0.003697  0.000951 -0.000565     3.886
   1.00063  0.02008  0.02756  1.46545  0.003092  0.000869  0.003966     3.557
   1.00502  0.01660  0.02489  1.48945  0.002606  0.000789  0.010310     3.303
   1.00896  0.01357  0.02236  1.51394  0.002216  0.000713  0.018279     3.108
   1.01253  0.01095  0.01995  1.53785  0.001895  0.000642  0.028142     2.950
   1.01577  0.00867  0.01764  1.55985  0.001630  0.000577  0.039799     2.824
   1.01874  0.00671  0.01541  1.57859  0.001409  0.000518  0.053292     2.720
   1.02149  0.00502  0.01324  1.59262  0.001222  0.000464  0.069084     2.631
   1.02404  0.00360  0.01113  1.59973  0.001063  0.000416  0.087134     2.553
   1.02642  0.00242  0.00906  1.59718  0.000930  0.000374  0.106839     2.487
   1.02866  0.00148  0.00703  1.58203  0.000820  0.000338  0.127388     2.430
   1.03077  0.00077  0.00504  1.55086  0.000727  0.000306  0.148957     2.374
   1.03277  0.00029  0.00309  1.49976  0.000658  0.000282  0.164817     2.338
   1.03468  0.00004  0.00120  1.42979  0.000603  0.000261  0.176870     2.306
   1.03651  0.00001 -0.00064  1.34018  0.000561  0.000246  0.182503     2.280
   1.03838  0.00020 -0.00249  1.22509  0.000529  0.000235  0.181528     2.252
   1.04030  0.00065 -0.00436  1.08371  0.000513  0.000229  0.167591     2.238
   1.04230  0.00137 -0.00623  0.92228  0.000507  0.000229  0.147098     2.217
   1.04439  0.00239 -0.00805  0.74778  0.000521  0.000236  0.116947     2.208
   1.04657  0.00369 -0.00980  0.57710  0.000549  0.000248  0.085192     2.215
   1.04888  0.00527 -0.01148  0.41501  0.000583  0.000265  0.058456     2.199
   1.05132  0.00712 -0.01307  0.26886  0.000642  0.000288  0.033538     2.227
   1.05393  0.00925 -0.01459  0.13891  0.000680  0.000307  0.016557     2.215
   1.05675  0.01167 -0.01603  0.02581  0.000811  0.000364  0.002546     2.230
   1.05979  0.01438 -0.01741 -0.07182  0.000811  0.000364  0.007081     2.230
   1.06312  0.01744 -0.01873 -0.16083  0.000923  0.000409  0.013572     2.259
   1.06679  0.02087 -0.02000 -0.23758  0.001011  0.000450  0.018517     2.246
   1.07086  0.02476 -0.02123 -0.30628  0.001117  0.000492  0.021139     2.270
   1.07542  0.02916 -0.02242 -0.36781  0.001220  0.000538  0.023226     2.270
   1.08058  0.03419 -0.02357 -0.42331  0.001347  0.000589  0.023836     2.288
   1.08647  0.03998 -0.02467 -0.47358  0.001478  0.000644  0.024159     2.294
   1.09325  0.04667 -0.02572 -0.51983  0.001624  0.000704  0.023889     2.305
   1.10108  0.05445 -0.02670 -0.56171  0.001791  0.000773  0.023105     2.318
   1.11013  0.06345 -0.02758 -0.59969  0.001973  0.000848  0.022189     2.328
   1.12048  0.07377 -0.02833 -0.63385  0.002173  0.000929  0.021074     2.339
   1.13215  0.08543 -0.02891 -0.66417  0.002386  0.001015  0.019909     2.349
   1.14504  0.09832 -0.02929 -0.69029  0.002617  0.001108  0.018629     2.362
   1.15896  0.11223 -0.02947 -0.71285  0.002848  0.001201  0.017545     2.370
   1.17368  0.12696 -0.02945 -0.73211  0.003083  0.001296  0.016492     2.379
   1.18901  0.14228 -0.02924 -0.74844  0.003319  0.001390  0.015523     2.388
   1.20480  0.15806 -0.02887 -0.76244  0.003549  0.001482  0.014693     2.395
   1.22092  0.17418 -0.02837 -0.77447  0.003776  0.001572  0.013931     2.402
   1.23731  0.19056 -0.02776 -0.78502  0.003992  0.001659  0.013293     2.406
   1.25391  0.20714 -0.02707 -0.79437  0.004202  0.001743  0.012730     2.410
   1.27067  0.22389 -0.02630 -0.80261  0.004410  0.001826  0.012193     2.415
   1.28758  0.24078 -0.02549 -0.81020  0.004601  0.001904  0.011786     2.416
   1.30460  0.25777 -0.02465 -0.81719  0.004785  0.001980  0.011419     2.417
   1.32169  0.27484 -0.02379 -0.82369  0.004961  0.002052  0.011096     2.418
   1.33881  0.29194 -0.02292 -0.82996  0.005119  0.002120  0.010866     2.415
   1.35590  0.30901 -0.02207 -0.83593  0.005270  0.002184  0.010654     2.413
   1.37294  0.32603 -0.02124 -0.84183  0.005403  0.002244  0.010513     2.408
   1.38994  0.34301 -0.02043 -0.84773  0.005521  0.002298  0.010428     2.402
   1.40689  0.35994 -0.01967 -0.85373  0.005622  0.002348  0.010397     2.394
   1.42382  0.37686 -0.01894 -0.85996  0.005704  0.002393  0.010426     2.384
   1.44075  0.39378 -0.01827 -0.86666  0.005758  0.002430  0.010552     2.370
   1.45775  0.41076 -0.01762 -0.87401  0.005786  0.002460  0.010773     2.352
   1.47481  0.42781 -0.01697 -0.88101  0.005851  0.002493  0.010793     2.347
   1.49192  0.44491 -0.01629 -0.88773  0.005930  0.002528  0.010742     2.346
   1.50907  0.46204 -0.01560 -0.89409  0.006021  0.002564  0.010635     2.348
   1.52625  0.47921 -0.01490 -0.90020  0.006112  0.002601  0.010525     2.350
   1.54344  0.49639 -0.01420 -0.90606  0.006204  0.002637  0.010415     2.352
   1.56064  0.51357 -0.01350 -0.91169  0.006295  0.002674  0.010307     2.354
   1.57783  0.53074 -0.01280 -0.91722  0.006377  0.002708  0.010231     2.355
   1.59499  0.54790 -0.01211 -0.92265  0.006455  0.002742  0.010170     2.355
   1.61214  0.56503 -0.01143 -0.92803  0.006527  0.002773  0.010129     2.353
   1.62928  0.58215 -0.01076 -0.93337  0.006593  0.002804  0.010106     2.351
   1.64639  0.59926 -0.01011 -0.93878  0.006648  0.002832  0.010114     2.348
   1.66350  0.61635 -0.00947 -0.94422  0.006699  0.002858  0.010135     2.344
   1.68058  0.63342 -0.00885 -0.94976  0.006740  0.002882  0.010180     2.339
   1.69766  0.65049 -0.00825 -0.95541  0.006775  0.002904  0.010245     2.333
   1.71473  0.66755 -0.00768 -0.96121  0.006801  0.002923  0.010332     2.327
   1.73178  0.68459 -0.00712 -0.96720  0.006817  0.002939  0.010444     2.319
   1.74883  0.70164 -0.00659 -0.97335  0.006829  0.002954  0.010565     2.312
   1.76588  0.71867 -0.00608 -0.97979  0.006828  0.002965  0.010726     2.303
   1.78292  0.73570 -0.00560 -0.98646  0.006822  0.002974  0.010899     2.294
   1.79995  0.75273 -0.00514 -0.99345  0.006806  0.002979  0.011104     2.284
   1.81698  0.76976 -0.00471 -1.00077  0.006781  0.002982  0.011334     2.274
   1.83401  0.78678 -0.00431 -1.00847  0.006747  0.002981  0.011594     2.263
   1.85104  0.80381 -0.00393 -1.01661  0.006702  0.002976  0.011890     2.252
   1.86807  0.82084 -0.00357 -1.02527  0.006646  0.002968  0.012231     2.239
   1.88510  0.83786 -0.00324 -1.03448  0.006579  0.002955  0.012615     2.226
   1.90213  0.85489 -0.00294 -1.04442  0.006497  0.002938  0.013068     2.211
   1.91914  0.87190 -0.00266 -1.05512  0.006402  0.002915  0.013579     2.196
   1.93613  0.88889 -0.00241 -1.06673  0.006292  0.002887  0.014172     2.180
   1.95305  0.90581 -0.00218 -1.07954  0.006160  0.002851  0.014895     2.161
   1.96983  0.92258 -0.00197 -1.09366  0.006007  0.002807  0.015750     2.140
   1.98627  0.93902 -0.00179 -1.10941  0.005826  0.002753  0.016805     2.116
   2.00209  0.95483 -0.00163 -1.12703  0.005614  0.002688  0.018127     2.088
   2.01678  0.96953 -0.00150 -1.14648  0.005372  0.002611  0.019761     2.057
   2.02984  0.98258 -0.00139 -1.16821  0.005084  0.002518  0.021933     2.019
   2.04093  0.99368 -0.00131 -1.19174  0.004773  0.002414  0.024622     1.977
   2.04725  1.00000 -0.00126 -1.21762  0.004331  0.002274  0.029285     1.904
   2.04725  1.00010 -0.00001  1.21762  0.357995  0.028010  0.000000    12.781
   2.05356  1.00636 -0.00078  1.21639  0.358449  0.028429  0.000000    12.609
   2.06096  1.01373 -0.00148  1.21483  0.358762  0.028962  0.000000    12.387
   2.06964  1.02238 -0.00216  1.21300  0.359042  0.029592  0.000000    12.133
   2.07981  1.03253 -0.00283  1.21084  0.359254  0.030337  0.000000    11.842
   2.09174  1.04445 -0.00345  1.20831  0.359366  0.031218  0.000000    11.511
   2.10574  1.05843 -0.00401  1.20533  0.359329  0.032262  0.000000    11.138
   2.12215  1.07483 -0.00447  1.20182  0.359076  0.033501  0.000000    10.718
   2.14139  1.09407 -0.00476  1.19769  0.358518  0.034973  0.000000    10.251
   2.16396  1.11664 -0.00483  1.19282  0.357536  0.036727  0.000000     9.735
   2.19042  1.14310 -0.00458  1.18706  0.355970  0.038819  0.000000     9.170
   2.22145  1.17412 -0.00390  1.18025  0.353613  0.041323  0.000000     8.557
   2.25784  1.21049 -0.00262  1.17217  0.350189  0.044331  0.000000     7.899
   2.30052  1.25312 -0.00058  1.16255  0.345341  0.047961  0.000000     7.200
   2.35057  1.30308  0.00248  1.15103  0.338601  0.052369  0.000000     6.466
   2.40926  1.36161  0.00684  1.13713  0.329363  0.057773  0.000000     5.701
   2.47809  1.43017  0.01286  1.12009  0.316858  0.064512  0.000000     4.912
   2.55880  1.51047  0.02097  1.09847  0.300170  0.073233  0.000000     4.099
   2.65345  1.60451  0.03170  1.06932  0.278309  0.085319  0.000000     3.262
   2.76445  1.71462  0.04569  1.04572  0.247710  0.095248  0.000000     2.601
   2.89461  1.84354  0.06370  1.03585  0.205764  0.099246  0.000000     2.073
   3.04725  1.99445  0.08663  1.13032  0.102993  0.071501  0.000000     1.440
